jMRUI Data Textfile
 
Filename: Cr.txt
 
PointsInDataset: 2048
DatasetsInFile: 1
SamplingInterval: 5.00000E-01
ZeroOrderPhase: 0E0
BeginTime: 0E0
TransmitterFrequency: 1.27740E+08
MagneticField: 0E0
TypeOfNucleus: 0E0
NameOfPatient: 
DateOfExperiment: 
Spectrometer: Vespa-Simulation
AdditionalInfo: see 'readme' file for Vespa-Simulation output synopsis
 
  
Signal and FFT 
sig(real)	sig(imag)	fft(real)	fft(imag)
Signal 1 out of 1 in file
6.00000E+00	-1.19696E-16	3.13515E+00	-9.36435E+00
4.93604E+00	-1.77424E+00	3.13321E+00	-9.27639E+00
2.27719E+00	-3.07422E+00	3.13139E+00	-9.18980E+00
-8.08160E-01	-3.56906E+00	3.12966E+00	-9.10462E+00
-3.03034E+00	-3.15438E+00	3.12787E+00	-9.02075E+00
-3.58054E+00	-2.00657E+00	3.12607E+00	-8.93805E+00
-2.48126E+00	-5.54705E-01	3.12433E+00	-8.85647E+00
-5.24033E-01	6.50737E-01	3.12265E+00	-8.77615E+00
1.15787E+00	1.14838E+00	3.12083E+00	-8.69696E+00
1.65798E+00	7.78183E-01	3.11891E+00	-8.61860E+00
7.23896E-01	-2.09503E-01	3.11737E+00	-8.54114E+00
-1.15511E+00	-1.22639E+00	3.11574E+00	-8.46495E+00
-3.02144E+00	-1.59884E+00	3.11433E+00	-8.38937E+00
-3.92910E+00	-9.01660E-01	3.11338E+00	-8.31531E+00
-3.38696E+00	7.87300E-01	3.11171E+00	-8.24261E+00
-1.55937E+00	2.85553E+00	3.10978E+00	-8.17014E+00
8.48752E-01	4.39311E+00	3.10823E+00	-8.09828E+00
2.93879E+00	4.60833E+00	3.10705E+00	-8.02737E+00
4.01472E+00	3.22806E+00	3.10590E+00	-7.95755E+00
3.84456E+00	6.76906E-01	3.10480E+00	-7.88851E+00
2.68941E+00	-2.07309E+00	3.10384E+00	-7.82045E+00
1.12290E+00	-3.93052E+00	3.10284E+00	-7.75342E+00
-2.46292E-01	-4.19189E+00	3.10149E+00	-7.68726E+00
-1.01351E+00	-2.87915E+00	3.09999E+00	-7.62149E+00
-1.08831E+00	-7.32623E-01	3.09871E+00	-7.55622E+00
-6.61286E-01	1.14691E+00	3.09773E+00	-7.49174E+00
-7.64918E-02	1.83652E+00	3.09668E+00	-7.42817E+00
3.18352E-01	1.04419E+00	3.09563E+00	-7.36518E+00
2.88403E-01	-7.49899E-01	3.09471E+00	-7.30287E+00
-2.26637E-01	-2.53601E+00	3.09371E+00	-7.24140E+00
-1.10204E+00	-3.28109E+00	3.09267E+00	-7.18045E+00
-2.05919E+00	-2.44603E+00	3.09160E+00	-7.12015E+00
-2.73600E+00	-2.57669E-01	3.09049E+00	-7.06031E+00
-2.79511E+00	2.39610E+00	3.08947E+00	-7.00093E+00
-2.05331E+00	4.39091E+00	3.08869E+00	-6.94206E+00
-5.89808E-01	4.89553E+00	3.08811E+00	-6.88388E+00
1.22510E+00	3.74783E+00	3.08764E+00	-6.82646E+00
2.82227E+00	1.50124E+00	3.08706E+00	-6.76984E+00
3.63859E+00	-8.64772E-01	3.08629E+00	-6.71381E+00
3.36136E+00	-2.41492E+00	3.08529E+00	-6.65824E+00
2.09790E+00	-2.67390E+00	3.08424E+00	-6.60294E+00
3.70913E-01	-1.79632E+00	3.08320E+00	-6.54797E+00
-1.08585E+00	-4.29419E-01	3.08241E+00	-6.49321E+00
-1.65695E+00	6.39229E-01	3.08201E+00	-6.43918E+00
-1.14707E+00	8.63568E-01	3.08146E+00	-6.38595E+00
1.00699E-01	1.69132E-01	3.08075E+00	-6.33305E+00
1.34781E+00	-1.05937E+00	3.08003E+00	-6.28075E+00
1.81377E+00	-2.19867E+00	3.07895E+00	-6.22873E+00
1.07513E+00	-2.68927E+00	3.07793E+00	-6.17672E+00
-6.90577E-01	-2.27248E+00	3.07718E+00	-6.12492E+00
-2.75094E+00	-1.06780E+00	3.07679E+00	-6.07351E+00
-4.14738E+00	5.16684E-01	3.07663E+00	-6.02263E+00
-4.15529E+00	1.97334E+00	3.07678E+00	-5.97238E+00
-2.64909E+00	2.88680E+00	3.07697E+00	-5.92307E+00
-1.86250E-01	3.05588E+00	3.07674E+00	-5.87463E+00
2.23884E+00	2.51917E+00	3.07569E+00	-5.82658E+00
3.65668E+00	1.50454E+00	3.07413E+00	-5.77822E+00
3.57384E+00	3.40204E-01	3.07257E+00	-5.72943E+00
2.19292E+00	-6.41162E-01	3.07172E+00	-5.68026E+00
2.94172E-01	-1.18849E+00	3.07206E+00	-5.63169E+00
-1.15830E+00	-1.20096E+00	3.07228E+00	-5.58518E+00
-1.48810E+00	-7.66095E-01	3.07070E+00	-5.53824E+00
-6.22594E-01	-1.45717E-01	3.06990E+00	-5.49027E+00
8.96273E-01	3.06053E-01	3.07045E+00	-5.44273E+00
2.20166E+00	2.82831E-01	3.07128E+00	-5.39679E+00
2.53916E+00	-3.22847E-01	3.07143E+00	-5.35167E+00
1.63272E+00	-1.33020E+00	3.07096E+00	-5.30686E+00
-1.94776E-01	-2.30366E+00	3.07008E+00	-5.26199E+00
-2.19170E+00	-2.72192E+00	3.06901E+00	-5.21701E+00
-3.54068E+00	-2.22200E+00	3.06800E+00	-5.17179E+00
-3.73017E+00	-8.05647E-01	3.06736E+00	-5.12655E+00
-2.75888E+00	1.10400E+00	3.06712E+00	-5.08155E+00
-1.09338E+00	2.80797E+00	3.06710E+00	-5.03704E+00
5.79325E-01	3.63038E+00	3.06707E+00	-4.99297E+00
1.66800E+00	3.23601E+00	3.06694E+00	-4.94927E+00
1.91197E+00	1.80905E+00	3.06662E+00	-4.90577E+00
1.43906E+00	-9.34136E-03	3.06630E+00	-4.86230E+00
6.47144E-01	-1.41001E+00	3.06618E+00	-4.81904E+00
-1.06333E-02	-1.79894E+00	3.06590E+00	-4.77624E+00
-2.26384E-01	-1.08811E+00	3.06547E+00	-4.73333E+00
5.89867E-02	2.56651E-01	3.06521E+00	-4.69059E+00
6.72678E-01	1.44281E+00	3.06498E+00	-4.64804E+00
1.31359E+00	1.74674E+00	3.06473E+00	-4.60575E+00
1.68166E+00	8.83157E-01	3.06438E+00	-4.56355E+00
1.58080E+00	-8.38252E-01	3.06402E+00	-4.52144E+00
9.70491E-01	-2.65022E+00	3.06369E+00	-4.47936E+00
-3.09837E-02	-3.69478E+00	3.06345E+00	-4.43742E+00
-1.17925E+00	-3.43841E+00	3.06324E+00	-4.39555E+00
-2.16348E+00	-1.93044E+00	3.06316E+00	-4.35384E+00
-2.68709E+00	2.20696E-01	3.06317E+00	-4.31231E+00
-2.56206E+00	2.13819E+00	3.06308E+00	-4.27116E+00
-1.79057E+00	3.08742E+00	3.06277E+00	-4.22986E+00
-5.95933E-01	2.80494E+00	3.06272E+00	-4.18864E+00
6.28798E-01	1.58995E+00	3.06252E+00	-4.14766E+00
1.45788E+00	1.26469E-01	3.06230E+00	-4.10640E+00
1.61052E+00	-8.65164E-01	3.06251E+00	-4.06546E+00
1.09028E+00	-9.69488E-01	3.06249E+00	-4.02485E+00
2.09079E-01	-2.47827E-01	3.06223E+00	-3.98420E+00
-5.36716E-01	8.29364E-01	3.06205E+00	-3.94337E+00
-6.96696E-01	1.63891E+00	3.06205E+00	-3.90267E+00
-9.92853E-02	1.71268E+00	3.06200E+00	-3.86213E+00
1.03271E+00	9.47365E-01	3.06183E+00	-3.82155E+00
2.15664E+00	-3.72334E-01	3.06181E+00	-3.78086E+00
2.65557E+00	-1.72876E+00	3.06195E+00	-3.74040E+00
2.14414E+00	-2.61299E+00	3.06188E+00	-3.70018E+00
6.83801E-01	-2.73484E+00	3.06146E+00	-3.65974E+00
-1.20989E+00	-2.11284E+00	3.06127E+00	-3.61879E+00
-2.78401E+00	-1.02441E+00	3.06174E+00	-3.57800E+00
-3.39401E+00	1.37601E-01	3.06208E+00	-3.53789E+00
-2.81070E+00	1.02519E+00	3.06199E+00	-3.49751E+00
-1.33455E+00	1.44557E+00	3.06211E+00	-3.45732E+00
3.44271E-01	1.39163E+00	3.06159E+00	-3.41695E+00
1.47572E+00	1.00538E+00	3.06143E+00	-3.37580E+00
1.60837E+00	5.05652E-01	3.06193E+00	-3.33495E+00
7.99577E-01	1.11658E-01	3.06230E+00	-3.29452E+00
-4.26252E-01	-1.97375E-02	3.06233E+00	-3.25411E+00
-1.34830E+00	1.61468E-01	3.06224E+00	-3.21336E+00
-1.41255E+00	5.77501E-01	3.06233E+00	-3.17249E+00
-5.06329E-01	1.03458E+00	3.06243E+00	-3.13158E+00
9.89140E-01	1.27818E+00	3.06251E+00	-3.09061E+00
2.38900E+00	1.08818E+00	3.06260E+00	-3.04943E+00
3.03807E+00	3.85986E-01	3.06283E+00	-3.00815E+00
2.61997E+00	-6.94205E-01	3.06314E+00	-2.96683E+00
1.29478E+00	-1.81788E+00	3.06351E+00	-2.92557E+00
-3.93102E-01	-2.56231E+00	3.06366E+00	-2.88430E+00
-1.78050E+00	-2.59451E+00	3.06365E+00	-2.84270E+00
-2.38680E+00	-1.83749E+00	3.06384E+00	-2.80076E+00
-2.10846E+00	-5.38398E-01	3.06406E+00	-2.75893E+00
-1.22417E+00	8.11415E-01	3.06421E+00	-2.71657E+00
-2.26664E-01	1.68330E+00	3.06482E+00	-2.67428E+00
4.23537E-01	1.75540E+00	3.06518E+00	-2.63210E+00
4.99013E-01	1.07384E+00	3.06533E+00	-2.58970E+00
7.59820E-02	4.35883E-02	3.06539E+00	-2.54674E+00
-5.41183E-01	-7.59759E-01	3.06585E+00	-2.50357E+00
-9.86209E-01	-8.72782E-01	3.06626E+00	-2.46034E+00
-1.00014E+00	-1.83685E-01	3.06672E+00	-2.41697E+00
-5.29212E-01	9.95417E-01	3.06703E+00	-2.37324E+00
2.77212E-01	2.06762E+00	3.06766E+00	-2.32935E+00
1.14841E+00	2.43988E+00	3.06801E+00	-2.28535E+00
1.80309E+00	1.82054E+00	3.06843E+00	-2.24103E+00
2.04284E+00	3.76967E-01	3.06860E+00	-2.19616E+00
1.80123E+00	-1.32909E+00	3.06935E+00	-2.15123E+00
1.14771E+00	-2.59999E+00	3.06971E+00	-2.10583E+00
2.59366E-01	-2.92859E+00	3.07007E+00	-2.06049E+00
-6.26949E-01	-2.23257E+00	3.07049E+00	-2.01426E+00
-1.27555E+00	-8.82507E-01	3.07088E+00	-1.96796E+00
-1.51800E+00	4.86292E-01	3.07147E+00	-1.92105E+00
-1.31342E+00	1.28222E+00	3.07199E+00	-1.87400E+00
-7.76983E-01	1.23263E+00	3.07253E+00	-1.82635E+00
-1.53562E-01	4.93592E-01	3.07311E+00	-1.77829E+00
2.69754E-01	-4.51874E-01	3.07394E+00	-1.72971E+00
2.87647E-01	-1.04788E+00	3.07484E+00	-1.68093E+00
-1.16183E-01	-9.41100E-01	3.07574E+00	-1.63170E+00
-7.36170E-01	-1.43127E-01	3.07662E+00	-1.58211E+00
-1.21872E+00	9.91107E-01	3.07751E+00	-1.53203E+00
-1.22260E+00	1.94668E+00	3.07830E+00	-1.48159E+00
-5.96367E-01	2.29513E+00	3.07892E+00	-1.43049E+00
5.16878E-01	1.88306E+00	3.07937E+00	-1.37869E+00
1.71107E+00	8.80488E-01	3.08000E+00	-1.32570E+00
2.48498E+00	-3.19443E-01	3.08143E+00	-1.27233E+00
2.47465E+00	-1.28810E+00	3.08273E+00	-1.21885E+00
1.63818E+00	-1.73973E+00	3.08383E+00	-1.16473E+00
2.96356E-01	-1.62517E+00	3.08493E+00	-1.10995E+00
-1.00163E+00	-1.11184E+00	3.08588E+00	-1.05451E+00
-1.72957E+00	-4.78698E-01	3.08670E+00	-9.98119E-01
-1.63274E+00	1.31889E-02	3.08762E+00	-9.40704E-01
-8.49570E-01	2.16273E-01	3.08886E+00	-8.82347E-01
1.57651E-01	1.28189E-01	3.09040E+00	-8.23308E-01
8.32060E-01	-1.36858E-01	3.09208E+00	-7.63583E-01
7.99769E-01	-4.08882E-01	3.09382E+00	-7.03235E-01
5.73192E-02	-5.26764E-01	3.09544E+00	-6.42157E-01
-1.02490E+00	-3.88023E-01	3.09675E+00	-5.80251E-01
-1.88530E+00	2.15789E-02	3.09777E+00	-5.17035E-01
-2.04868E+00	6.18571E-01	3.09869E+00	-4.52370E-01
-1.36050E+00	1.23551E+00	3.10004E+00	-3.85862E-01
-6.33516E-02	1.66106E+00	3.10275E+00	-3.18426E-01
1.31945E+00	1.70768E+00	3.10505E+00	-2.51571E-01
2.23175E+00	1.28956E+00	3.10596E+00	-1.82296E-01
2.34021E+00	4.79568E-01	3.10815E+00	-1.10942E-01
1.67462E+00	-4.89252E-01	3.11108E+00	-3.89050E-02
5.91422E-01	-1.29488E+00	3.11395E+00	3.38087E-02
-4.11934E-01	-1.65267E+00	3.11636E+00	1.07832E-01
-9.34769E-01	-1.44520E+00	3.11869E+00	1.83500E-01
-8.45484E-01	-7.90912E-01	3.12090E+00	2.60805E-01
-3.14076E-01	-7.44639E-03	3.12300E+00	3.39964E-01
2.99173E-01	5.26202E-01	3.12513E+00	4.21315E-01
6.32402E-01	5.50472E-01	3.12787E+00	5.04812E-01
4.92209E-01	6.12760E-02	3.13112E+00	5.89962E-01
-7.18779E-02	-6.72401E-01	3.13451E+00	6.76764E-01
-8.11782E-01	-1.22844E+00	3.13778E+00	7.65604E-01
-1.40859E+00	-1.23790E+00	3.14130E+00	8.56828E-01
