jMRUI Data Textfile
 
Filename: GABA.txt
 
PointsInDataset: 2048
DatasetsInFile: 1
SamplingInterval: 5.00000E-01
ZeroOrderPhase: 0E0
BeginTime: 0E0
TransmitterFrequency: 1.27740E+08
MagneticField: 0E0
TypeOfNucleus: 0E0
NameOfPatient: 
DateOfExperiment: 
Spectrometer: Vespa-Simulation
AdditionalInfo: see 'readme' file for Vespa-Simulation output synopsis
 
  
Signal and FFT 
sig(real)	sig(imag)	fft(real)	fft(imag)
Signal 1 out of 1 in file
3.75420E+00	-2.04303E-01	1.73556E+00	-4.09940E+00
2.06358E+00	-3.01944E+00	1.73592E+00	-4.08263E+00
-1.08730E+00	-3.26282E+00	1.73637E+00	-4.06605E+00
-2.96182E+00	-9.84457E-01	1.73681E+00	-4.04975E+00
-2.21838E+00	1.58022E+00	1.73705E+00	-4.03363E+00
1.78766E-02	2.27213E+00	1.73721E+00	-4.01748E+00
1.51633E+00	9.65582E-01	1.73741E+00	-4.00139E+00
1.17649E+00	-6.42632E-01	1.73758E+00	-3.98534E+00
-1.34006E-01	-9.55639E-01	1.73782E+00	-3.96933E+00
-7.79408E-01	-1.04678E-02	1.73820E+00	-3.95339E+00
-1.32772E-01	8.39008E-01	1.73867E+00	-3.93769E+00
9.22290E-01	5.19834E-01	1.73914E+00	-3.92223E+00
1.09688E+00	-6.61134E-01	1.73948E+00	-3.90695E+00
8.32974E-02	-1.45815E+00	1.73972E+00	-3.89176E+00
-1.20253E+00	-1.02375E+00	1.73984E+00	-3.87660E+00
-1.60644E+00	2.98770E-01	1.73998E+00	-3.86133E+00
-8.17345E-01	1.41063E+00	1.74032E+00	-3.84611E+00
4.83073E-01	1.50402E+00	1.74077E+00	-3.83110E+00
1.34807E+00	6.51940E-01	1.74118E+00	-3.81632E+00
1.32437E+00	-4.56782E-01	1.74155E+00	-3.80165E+00
6.05330E-01	-1.15867E+00	1.74188E+00	-3.78709E+00
-3.12514E-01	-1.18942E+00	1.74215E+00	-3.77266E+00
-9.81017E-01	-6.45917E-01	1.74232E+00	-3.75827E+00
-1.12443E+00	1.78305E-01	1.74248E+00	-3.74380E+00
-6.75786E-01	8.81983E-01	1.74283E+00	-3.72933E+00
1.43174E-01	1.06970E+00	1.74333E+00	-3.71509E+00
8.38378E-01	6.00152E-01	1.74378E+00	-3.70112E+00
9.34389E-01	-2.14593E-01	1.74410E+00	-3.68726E+00
3.85168E-01	-7.68076E-01	1.74435E+00	-3.67342E+00
-3.24019E-01	-6.59406E-01	1.74464E+00	-3.65964E+00
-5.88017E-01	-7.70288E-02	1.74485E+00	-3.64598E+00
-2.56756E-01	3.71296E-01	1.74500E+00	-3.63225E+00
2.22420E-01	2.66645E-01	1.74532E+00	-3.61846E+00
2.81092E-01	-1.91626E-01	1.74585E+00	-3.60488E+00
-1.54740E-01	-4.06580E-01	1.74633E+00	-3.59160E+00
-5.70783E-01	-4.23739E-02	1.74665E+00	-3.57844E+00
-4.14111E-01	5.78925E-01	1.74695E+00	-3.56527E+00
2.86476E-01	7.83921E-01	1.74722E+00	-3.55221E+00
8.96069E-01	2.54129E-01	1.74742E+00	-3.53922E+00
7.92245E-01	-6.05653E-01	1.74755E+00	-3.52614E+00
-2.31782E-03	-1.03015E+00	1.74787E+00	-3.51300E+00
-8.18402E-01	-6.26274E-01	1.74838E+00	-3.50003E+00
-9.67067E-01	2.56834E-01	1.74894E+00	-3.48738E+00
-3.66885E-01	8.69825E-01	1.74929E+00	-3.47490E+00
4.25534E-01	7.53882E-01	1.74957E+00	-3.46246E+00
7.63477E-01	1.08339E-01	1.74976E+00	-3.45006E+00
4.73434E-01	-4.68825E-01	1.74981E+00	-3.43768E+00
-7.81078E-02	-5.51665E-01	1.74985E+00	-3.42510E+00
-3.98108E-01	-2.08874E-01	1.75011E+00	-3.41238E+00
-3.07762E-01	1.64641E-01	1.75080E+00	-3.39983E+00
-1.48878E-02	2.60514E-01	1.75151E+00	-3.38788E+00
1.65550E-01	9.55354E-02	1.75174E+00	-3.37600E+00
1.12398E-01	-9.35549E-02	1.75209E+00	-3.36388E+00
-5.08827E-02	-1.19322E-01	1.75262E+00	-3.35207E+00
-1.33881E-01	4.64010E-03	1.75296E+00	-3.34050E+00
-6.54946E-02	1.30131E-01	1.75296E+00	-3.32896E+00
7.53511E-02	1.37524E-01	1.75287E+00	-3.31709E+00
1.62494E-01	2.77417E-02	1.75309E+00	-3.30507E+00
1.31326E-01	-1.07914E-01	1.75359E+00	-3.29334E+00
9.20722E-03	-1.73061E-01	1.75375E+00	-3.28188E+00
-1.21538E-01	-1.27158E-01	1.75391E+00	-3.27004E+00
-1.78326E-01	1.02180E-03	1.75450E+00	-3.25823E+00
-1.22339E-01	1.32842E-01	1.75533E+00	-3.24690E+00
1.64100E-02	1.81537E-01	1.75582E+00	-3.23599E+00
1.47843E-01	1.07566E-01	1.75600E+00	-3.22494E+00
1.76549E-01	-4.34525E-02	1.75633E+00	-3.21377E+00
7.63282E-02	-1.61939E-01	1.75670E+00	-3.20295E+00
-7.84597E-02	-1.55889E-01	1.75661E+00	-3.19212E+00
-1.65811E-01	-3.04578E-02	1.75654E+00	-3.18090E+00
-1.17716E-01	1.10750E-01	1.75678E+00	-3.16961E+00
2.01833E-02	1.52721E-01	1.75726E+00	-3.15844E+00
1.29290E-01	6.81885E-02	1.75782E+00	-3.14763E+00
1.23095E-01	-6.26929E-02	1.75815E+00	-3.13686E+00
1.88447E-02	-1.28578E-01	1.75871E+00	-3.12612E+00
-8.73265E-02	-8.44486E-02	1.75912E+00	-3.11583E+00
-1.10979E-01	1.89113E-02	1.75909E+00	-3.10534E+00
-4.74492E-02	9.16009E-02	1.75935E+00	-3.09463E+00
3.89006E-02	8.47720E-02	1.75962E+00	-3.08410E+00
8.05178E-02	2.06210E-02	1.75999E+00	-3.07356E+00
5.95155E-02	-4.23690E-02	1.76032E+00	-3.06322E+00
6.64964E-03	-6.32135E-02	1.76066E+00	-3.05281E+00
-3.64002E-02	-4.14182E-02	1.76107E+00	-3.04257E+00
-4.81840E-02	-1.94597E-03	1.76140E+00	-3.03247E+00
-3.10535E-02	2.98209E-02	1.76160E+00	-3.02236E+00
6.06892E-04	3.96167E-02	1.76180E+00	-3.01220E+00
2.88917E-02	2.42918E-02	1.76209E+00	-3.00202E+00
3.64987E-02	-7.57624E-03	1.76248E+00	-2.99196E+00
1.54662E-02	-3.49621E-02	1.76278E+00	-2.98203E+00
-2.17850E-02	-3.44305E-02	1.76308E+00	-2.97209E+00
-4.48549E-02	-7.31243E-04	1.76342E+00	-2.96217E+00
-2.86253E-02	4.14425E-02	1.76381E+00	-2.95242E+00
2.01128E-02	5.31142E-02	1.76403E+00	-2.94275E+00
6.14096E-02	1.62757E-02	1.76421E+00	-2.93296E+00
5.44858E-02	-4.38336E-02	1.76455E+00	-2.92315E+00
-2.66088E-03	-7.53480E-02	1.76496E+00	-2.91354E+00
-6.51578E-02	-4.54200E-02	1.76525E+00	-2.90400E+00
-7.74471E-02	2.59046E-02	1.76554E+00	-2.89442E+00
-2.45045E-02	7.82069E-02	1.76593E+00	-2.88492E+00
4.95551E-02	6.33754E-02	1.76629E+00	-2.87561E+00
7.74045E-02	-7.42054E-03	1.76645E+00	-2.86633E+00
3.09543E-02	-6.85172E-02	1.76661E+00	-2.85692E+00
-4.69519E-02	-5.82752E-02	1.76682E+00	-2.84747E+00
-7.69064E-02	1.88558E-02	1.76721E+00	-2.83805E+00
-1.87430E-02	8.78213E-02	1.76765E+00	-2.82884E+00
8.08719E-02	6.92399E-02	1.76796E+00	-2.81976E+00
1.21546E-01	-3.90790E-02	1.76820E+00	-2.81059E+00
4.26289E-02	-1.45417E-01	1.76859E+00	-2.80146E+00
-1.07546E-01	-1.39560E-01	1.76895E+00	-2.79253E+00
-1.99885E-01	8.06936E-04	1.76914E+00	-2.78364E+00
-1.36442E-01	1.73845E-01	1.76925E+00	-2.77463E+00
5.27177E-02	2.32106E-01	1.76953E+00	-2.76549E+00
2.22736E-01	1.12716E-01	1.77001E+00	-2.75656E+00
2.34384E-01	-9.97762E-02	1.77033E+00	-2.74789E+00
7.57022E-02	-2.40892E-01	1.77044E+00	-2.73906E+00
-1.27279E-01	-2.06339E-01	1.77081E+00	-2.73007E+00
-2.21227E-01	-3.74754E-02	1.77135E+00	-2.72142E+00
-1.55076E-01	1.23990E-01	1.77162E+00	-2.71305E+00
-1.06952E-02	1.65189E-01	1.77147E+00	-2.70440E+00
8.60361E-02	9.24142E-02	1.77184E+00	-2.69528E+00
8.19563E-02	3.83380E-03	1.77259E+00	-2.68693E+00
3.02770E-02	-1.81596E-02	1.77252E+00	-2.67872E+00
1.81363E-02	1.52603E-02	1.77266E+00	-2.66980E+00
6.83722E-02	2.37089E-02	1.77333E+00	-2.66131E+00
1.14161E-01	-4.76989E-02	1.77369E+00	-2.65313E+00
6.81963E-02	-1.60403E-01	1.77378E+00	-2.64500E+00
-8.29121E-02	-2.07154E-01	1.77368E+00	-2.63636E+00
-2.47829E-01	-1.06530E-01	1.77438E+00	-2.62770E+00
-2.91915E-01	1.15669E-01	1.77492E+00	-2.61993E+00
-1.42201E-01	3.26165E-01	1.77458E+00	-2.61176E+00
1.43447E-01	3.68157E-01	1.77504E+00	-2.60299E+00
3.94998E-01	1.73785E-01	1.77570E+00	-2.59505E+00
4.32148E-01	-1.69717E-01	1.77588E+00	-2.58721E+00
1.92606E-01	-4.52739E-01	1.77580E+00	-2.57906E+00
-1.99305E-01	-4.72531E-01	1.77619E+00	-2.57071E+00
-4.90465E-01	-1.85867E-01	1.77665E+00	-2.56271E+00
-4.70884E-01	2.30923E-01	1.77689E+00	-2.55493E+00
-1.44563E-01	4.89300E-01	1.77696E+00	-2.54688E+00
2.50869E-01	4.08673E-01	1.77734E+00	-2.53869E+00
4.24535E-01	7.29536E-02	1.77789E+00	-2.53092E+00
2.78462E-01	-2.32946E-01	1.77809E+00	-2.52326E+00
-6.21227E-03	-2.76668E-01	1.77819E+00	-2.51542E+00
-1.46655E-01	-9.42408E-02	1.77852E+00	-2.50749E+00
-4.51689E-02	5.50309E-02	1.77887E+00	-2.49981E+00
1.05765E-01	-2.76541E-02	1.77904E+00	-2.49221E+00
3.38858E-02	-2.41856E-01	1.77909E+00	-2.48440E+00
-2.83347E-01	-2.67604E-01	1.77941E+00	-2.47650E+00
-5.28807E-01	7.97456E-02	1.77984E+00	-2.46883E+00
-3.40286E-01	5.79886E-01	1.78015E+00	-2.46129E+00
2.75132E-01	7.46937E-01	1.78038E+00	-2.45366E+00
8.48898E-01	2.97953E-01	1.78082E+00	-2.44605E+00
8.38259E-01	-5.03721E-01	1.78122E+00	-2.43870E+00
1.55440E-01	-1.01456E+00	1.78138E+00	-2.43143E+00
-6.90922E-01	-7.79609E-01	1.78143E+00	-2.42395E+00
-1.02155E+00	3.18266E-02	1.78166E+00	-2.41638E+00
-5.95461E-01	7.62103E-01	1.78199E+00	-2.40895E+00
1.85446E-01	8.58661E-01	1.78222E+00	-2.40162E+00
6.72381E-01	3.52290E-01	1.78239E+00	-2.39420E+00
5.67056E-01	-2.34681E-01	1.78272E+00	-2.38673E+00
1.33962E-01	-4.27895E-01	1.78315E+00	-2.37945E+00
-1.46755E-01	-2.26951E-01	1.78343E+00	-2.37231E+00
-8.69624E-02	-7.83066E-03	1.78362E+00	-2.36508E+00
7.32435E-02	-5.69535E-02	1.78391E+00	-2.35782E+00
3.82149E-03	-2.61236E-01	1.78425E+00	-2.35067E+00
-3.08069E-01	-2.72495E-01	1.78453E+00	-2.34364E+00
-5.32510E-01	6.70797E-02	1.78466E+00	-2.33655E+00
-3.61386E-01	5.19940E-01	1.78489E+00	-2.32935E+00
1.50140E-01	6.82323E-01	1.78524E+00	-2.32227E+00
6.26173E-01	3.82581E-01	1.78547E+00	-2.31530E+00
7.22624E-01	-1.71712E-01	1.78568E+00	-2.30826E+00
4.05744E-01	-6.10988E-01	1.78593E+00	-2.30122E+00
-9.29131E-02	-7.11728E-01	1.78624E+00	-2.29421E+00
-5.15705E-01	-4.88286E-01	1.78656E+00	-2.28733E+00
-7.20547E-01	-6.76524E-02	1.78676E+00	-2.28047E+00
-6.40206E-01	4.16893E-01	1.78697E+00	-2.27354E+00
-2.39696E-01	7.90778E-01	1.78727E+00	-2.26663E+00
3.85052E-01	8.11782E-01	1.78755E+00	-2.25985E+00
9.05972E-01	3.34592E-01	1.78776E+00	-2.25303E+00
9.12701E-01	-4.43100E-01	1.78801E+00	-2.24618E+00
2.92319E-01	-9.91542E-01	1.78838E+00	-2.23935E+00
-5.46555E-01	-8.55532E-01	1.78875E+00	-2.23274E+00
-9.46866E-01	-1.18554E-01	1.78895E+00	-2.22617E+00
-6.04255E-01	5.97382E-01	1.78909E+00	-2.21951E+00
1.07420E-01	6.96409E-01	1.78928E+00	-2.21281E+00
4.88442E-01	2.03353E-01	1.78948E+00	-2.20618E+00
2.36041E-01	-2.61611E-01	1.78962E+00	-2.19947E+00
-2.28710E-01	-1.58852E-01	1.78987E+00	-2.19271E+00
-2.29840E-01	3.49093E-01	1.79028E+00	-2.18598E+00
3.65225E-01	5.42962E-01	1.79077E+00	-2.17950E+00
9.07055E-01	-3.51885E-02	1.79110E+00	-2.17315E+00
6.22572E-01	-9.66414E-01	1.79132E+00	-2.16682E+00
-4.82573E-01	-1.27526E+00	1.79146E+00	-2.16042E+00
