jMRUI Data Textfile
 
Filename: Glc.txt
 
PointsInDataset: 2048
DatasetsInFile: 1
SamplingInterval: 5.00000E-01
ZeroOrderPhase: 0E0
BeginTime: 0E0
TransmitterFrequency: 1.27740E+08
MagneticField: 0E0
TypeOfNucleus: 0E0
NameOfPatient: 
DateOfExperiment: 
Spectrometer: Vespa-Simulation
AdditionalInfo: see 'readme' file for Vespa-Simulation output synopsis
 
  
Signal and FFT 
sig(real)	sig(imag)	fft(real)	fft(imag)
Signal 1 out of 1 in file
6.59710E+00	-5.38599E-02	1.99078E+01	-4.15257E+01
5.90110E+00	-2.70511E+00	1.60100E+01	-3.87003E+01
4.06718E+00	-4.70685E+00	1.33297E+01	-3.62528E+01
1.55642E+00	-5.60545E+00	1.14045E+01	-3.41428E+01
-1.01560E+00	-5.23445E+00	9.99013E+00	-3.23030E+01
-3.04259E+00	-3.74831E+00	8.96562E+00	-3.07181E+01
-4.08325E+00	-1.56952E+00	8.16688E+00	-2.93961E+01
-3.96667E+00	7.33234E-01	7.49053E+00	-2.82359E+01
-2.82077E+00	2.59981E+00	6.92734E+00	-2.71822E+01
-1.01993E+00	3.62248E+00	6.47085E+00	-2.62193E+01
9.29806E-01	3.64037E+00	6.11174E+00	-2.53447E+01
2.53263E+00	2.76164E+00	5.83169E+00	-2.45739E+01
3.43169E+00	1.31213E+00	5.57615E+00	-2.38951E+01
3.49033E+00	-2.70200E-01	5.34052E+00	-2.32627E+01
2.80721E+00	-1.56230E+00	5.14175E+00	-2.26706E+01
1.66644E+00	-2.26777E+00	4.97545E+00	-2.21292E+01
4.41756E-01	-2.28401E+00	4.82353E+00	-2.16353E+01
-5.14702E-01	-1.71009E+00	4.67951E+00	-2.11742E+01
-9.67207E-01	-7.98569E-01	4.54622E+00	-2.07377E+01
-8.49981E-01	1.30478E-01	4.42233E+00	-2.03250E+01
-2.68573E-01	7.85662E-01	4.30317E+00	-1.99275E+01
5.46235E-01	9.83397E-01	4.20328E+00	-1.95333E+01
1.31481E+00	6.89674E-01	4.12670E+00	-1.91663E+01
1.79134E+00	1.67148E-02	4.05131E+00	-1.88200E+01
1.82968E+00	-8.20136E-01	3.99270E+00	-1.84679E+01
1.41613E+00	-1.56963E+00	3.97401E+00	-1.81511E+01
6.63818E-01	-2.01549E+00	3.95093E+00	-1.78779E+01
-2.26030E-01	-2.03188E+00	3.91181E+00	-1.76235E+01
-1.02233E+00	-1.61049E+00	3.86967E+00	-1.73713E+01
-1.52496E+00	-8.55409E-01	3.83331E+00	-1.71352E+01
-1.61268E+00	4.95371E-02	3.77807E+00	-1.69128E+01
-1.26775E+00	8.89978E-01	3.71506E+00	-1.66615E+01
-5.74058E-01	1.47323E+00	3.69721E+00	-1.64080E+01
3.07818E-01	1.67109E+00	3.69169E+00	-1.61888E+01
1.18076E+00	1.44482E+00	3.68071E+00	-1.59876E+01
1.85566E+00	8.48749E-01	3.66600E+00	-1.57957E+01
2.19120E+00	1.40860E-02	3.64981E+00	-1.56106E+01
2.12093E+00	-8.81791E-01	3.63331E+00	-1.54315E+01
1.66396E+00	-1.65331E+00	3.61706E+00	-1.52578E+01
9.18201E-01	-2.14469E+00	3.60140E+00	-1.50894E+01
3.87837E-02	-2.26029E+00	3.58634E+00	-1.49260E+01
-7.94343E-01	-1.98300E+00	3.57197E+00	-1.47673E+01
-1.41295E+00	-1.37683E+00	3.55832E+00	-1.46130E+01
-1.69518E+00	-5.73519E-01	3.54542E+00	-1.44630E+01
-1.59093E+00	2.54584E-01	3.53322E+00	-1.43171E+01
-1.13317E+00	9.30922E-01	3.52170E+00	-1.41751E+01
-4.31760E-01	1.31279E+00	3.51075E+00	-1.40369E+01
3.49785E-01	1.32351E+00	3.50038E+00	-1.39021E+01
1.03045E+00	9.70770E-01	3.49059E+00	-1.37708E+01
1.45319E+00	3.46193E-01	3.48131E+00	-1.36427E+01
1.52238E+00	-3.94996E-01	3.47249E+00	-1.35177E+01
1.22767E+00	-1.07025E+00	3.46416E+00	-1.33957E+01
6.47553E-01	-1.51416E+00	3.45627E+00	-1.32764E+01
-6.90952E-02	-1.61958E+00	3.44882E+00	-1.31600E+01
-7.40061E-01	-1.36539E+00	3.44170E+00	-1.30462E+01
-1.19608E+00	-8.22399E-01	3.43493E+00	-1.29348E+01
-1.32491E+00	-1.35501E-01	3.42850E+00	-1.28259E+01
-1.10090E+00	5.14023E-01	3.42239E+00	-1.27193E+01
-5.91965E-01	9.56570E-01	3.41654E+00	-1.26150E+01
5.85811E-02	1.07951E+00	3.41094E+00	-1.25127E+01
6.70658E-01	8.57505E-01	3.40560E+00	-1.24125E+01
1.07650E+00	3.59226E-01	3.40057E+00	-1.23142E+01
1.16635E+00	-2.71670E-01	3.39577E+00	-1.22179E+01
9.18448E-01	-8.56338E-01	3.39121E+00	-1.21234E+01
4.04600E-01	-1.23012E+00	3.38687E+00	-1.20308E+01
-2.30095E-01	-1.28805E+00	3.38270E+00	-1.19399E+01
-8.08002E-01	-1.01363E+00	3.37859E+00	-1.18506E+01
-1.16823E+00	-4.82815E-01	3.37468E+00	-1.17629E+01
-1.21129E+00	1.57608E-01	3.37103E+00	-1.16767E+01
-9.26277E-01	7.31242E-01	3.36759E+00	-1.15920E+01
-3.93121E-01	1.08127E+00	3.36424E+00	-1.15089E+01
2.40182E-01	1.11345E+00	3.36104E+00	-1.14271E+01
7.99003E-01	8.21721E-01	3.35797E+00	-1.13467E+01
1.13042E+00	2.88796E-01	3.35498E+00	-1.12677E+01
1.14466E+00	-3.37319E-01	3.35204E+00	-1.11900E+01
8.38845E-01	-8.84524E-01	3.34923E+00	-1.11133E+01
2.96605E-01	-1.20357E+00	3.34664E+00	-1.10379E+01
-3.35983E-01	-1.20796E+00	3.34424E+00	-1.09637E+01
-8.90438E-01	-8.95923E-01	3.34189E+00	-1.08906E+01
-1.22127E+00	-3.49259E-01	3.33970E+00	-1.08188E+01
-1.24395E+00	2.90141E-01	3.33755E+00	-1.07481E+01
-9.55545E-01	8.59225E-01	3.33540E+00	-1.06785E+01
-4.33223E-01	1.21676E+00	3.33319E+00	-1.06098E+01
1.88224E-01	1.27941E+00	3.33103E+00	-1.05421E+01
7.53282E-01	1.04124E+00	3.32901E+00	-1.04751E+01
1.12621E+00	5.72272E-01	3.32720E+00	-1.04092E+01
1.22499E+00	-2.53218E-03	3.32545E+00	-1.03442E+01
1.03976E+00	-5.37455E-01	3.32382E+00	-1.02800E+01
6.31789E-01	-9.04072E-01	3.32236E+00	-1.02168E+01
1.14319E-01	-1.02261E+00	3.32098E+00	-1.01546E+01
-3.78815E-01	-8.79494E-01	3.31955E+00	-1.00933E+01
-7.28068E-01	-5.26919E-01	3.31805E+00	-1.00329E+01
-8.57458E-01	-6.56384E-02	3.31648E+00	-9.97312E+00
-7.50825E-01	3.83358E-01	3.31495E+00	-9.91401E+00
-4.52109E-01	7.10682E-01	3.31358E+00	-9.85557E+00
-5.01792E-02	8.45420E-01	3.31233E+00	-9.79795E+00
3.46584E-01	7.70380E-01	3.31109E+00	-9.74107E+00
6.39126E-01	5.22886E-01	3.30991E+00	-9.68487E+00
7.62256E-01	1.81633E-01	3.30878E+00	-9.62940E+00
6.99046E-01	-1.56177E-01	3.30767E+00	-9.57462E+00
4.82000E-01	-4.00722E-01	3.30653E+00	-9.52048E+00
1.81740E-01	-4.92140E-01	3.30543E+00	-9.46685E+00
-1.13290E-01	-4.14055E-01	3.30455E+00	-9.41379E+00
-3.20438E-01	-1.95341E-01	3.30386E+00	-9.36153E+00
-3.83507E-01	9.95605E-02	3.30310E+00	-9.31007E+00
-2.85783E-01	3.88659E-01	3.30225E+00	-9.25921E+00
-5.24390E-02	5.93872E-01	3.30136E+00	-9.20895E+00
2.57430E-01	6.60285E-01	3.30038E+00	-9.15926E+00
5.66734E-01	5.68883E-01	3.29928E+00	-9.10998E+00
7.99863E-01	3.39906E-01	3.29827E+00	-9.06101E+00
9.00936E-01	2.65380E-02	3.29757E+00	-9.01254E+00
8.46395E-01	-2.98772E-01	3.29691E+00	-8.96486E+00
6.49541E-01	-5.62056E-01	3.29604E+00	-8.91765E+00
3.56247E-01	-7.05050E-01	3.29526E+00	-8.87069E+00
3.32705E-02	-6.98110E-01	3.29479E+00	-8.82419E+00
-2.47523E-01	-5.45919E-01	3.29452E+00	-8.77845E+00
-4.25585E-01	-2.85332E-01	3.29412E+00	-8.73343E+00
-4.64858E-01	2.40553E-02	3.29358E+00	-8.68890E+00
-3.60869E-01	3.13926E-01	3.29294E+00	-8.64483E+00
-1.40635E-01	5.22778E-01	3.29219E+00	-8.60110E+00
1.44499E-01	6.09353E-01	3.29147E+00	-8.55776E+00
4.31288E-01	5.61114E-01	3.29069E+00	-8.51472E+00
6.59175E-01	3.96027E-01	3.29004E+00	-8.47199E+00
7.84067E-01	1.57395E-01	3.28956E+00	-8.42963E+00
7.87985E-01	-9.70062E-02	3.28920E+00	-8.38779E+00
6.82502E-01	-3.09113E-01	3.28888E+00	-8.34646E+00
5.05139E-01	-4.34511E-01	3.28851E+00	-8.30562E+00
3.09494E-01	-4.53249E-01	3.28808E+00	-8.26516E+00
1.51306E-01	-3.74573E-01	3.28764E+00	-8.22508E+00
7.37732E-02	-2.34351E-01	3.28718E+00	-8.18534E+00
9.56958E-02	-8.55241E-02	3.28674E+00	-8.14597E+00
2.05809E-01	1.63087E-02	3.28628E+00	-8.10688E+00
3.64839E-01	2.86787E-02	3.28597E+00	-8.06812E+00
5.15484E-01	-6.46766E-02	3.28573E+00	-8.02983E+00
5.98087E-01	-2.47190E-01	3.28544E+00	-7.99200E+00
5.68178E-01	-4.71614E-01	3.28505E+00	-7.95454E+00
4.11190E-01	-6.71087E-01	3.28456E+00	-7.91734E+00
1.50028E-01	-7.76810E-01	3.28406E+00	-7.88033E+00
-1.57520E-01	-7.38048E-01	3.28373E+00	-7.84360E+00
-4.31176E-01	-5.38861E-01	3.28339E+00	-7.80727E+00
-5.88584E-01	-2.06830E-01	3.28304E+00	-7.77120E+00
-5.68146E-01	1.89674E-01	3.28277E+00	-7.73538E+00
-3.48360E-01	5.55857E-01	3.28265E+00	-7.69991E+00
4.21474E-02	7.93529E-01	3.28255E+00	-7.66489E+00
5.27394E-01	8.27124E-01	3.28235E+00	-7.63029E+00
1.00018E+00	6.25598E-01	3.28203E+00	-7.59589E+00
1.34737E+00	2.14079E-01	3.28179E+00	-7.56170E+00
1.47896E+00	-3.28861E-01	3.28156E+00	-7.52787E+00
1.35239E+00	-8.88317E-01	3.28128E+00	-7.49433E+00
9.85516E-01	-1.34064E+00	3.28094E+00	-7.46094E+00
4.54192E-01	-1.58442E+00	3.28083E+00	-7.42779E+00
-1.25518E-01	-1.56662E+00	3.28069E+00	-7.39517E+00
-6.26431E-01	-1.29640E+00	3.28029E+00	-7.36275E+00
-9.41822E-01	-8.42774E-01	3.27996E+00	-7.33037E+00
-1.01246E+00	-3.16471E-01	3.27973E+00	-7.29823E+00
-8.40443E-01	1.59150E-01	3.27959E+00	-7.26636E+00
-4.86546E-01	4.80110E-01	3.27949E+00	-7.23480E+00
-5.18487E-02	5.87792E-01	3.27933E+00	-7.20349E+00
3.50964E-01	4.81765E-01	3.27935E+00	-7.17233E+00
6.28325E-01	2.16147E-01	3.27947E+00	-7.14168E+00
7.29831E-01	-1.19199E-01	3.27939E+00	-7.11142E+00
6.58651E-01	-4.26334E-01	3.27918E+00	-7.08134E+00
4.66147E-01	-6.27928E-01	3.27886E+00	-7.05146E+00
2.32554E-01	-6.88139E-01	3.27844E+00	-7.02162E+00
4.01754E-02	-6.19874E-01	3.27813E+00	-6.99183E+00
-5.25229E-02	-4.76771E-01	3.27804E+00	-6.96222E+00
-2.80376E-02	-3.32950E-01	3.27808E+00	-6.93305E+00
8.67370E-02	-2.57210E-01	3.27795E+00	-6.90419E+00
2.31586E-01	-2.90018E-01	3.27768E+00	-6.87547E+00
3.34314E-01	-4.30311E-01	3.27749E+00	-6.84674E+00
3.35600E-01	-6.36129E-01	3.27752E+00	-6.81824E+00
2.09274E-01	-8.38508E-01	3.27761E+00	-6.79013E+00
-2.82650E-02	-9.63984E-01	3.27763E+00	-6.76231E+00
-3.22237E-01	-9.58462E-01	3.27761E+00	-6.73472E+00
-5.95996E-01	-8.04869E-01	3.27750E+00	-6.70736E+00
-7.73824E-01	-5.29357E-01	3.27731E+00	-6.68016E+00
-8.03769E-01	-1.94239E-01	3.27706E+00	-6.65306E+00
-6.72884E-01	1.19816E-01	3.27686E+00	-6.62603E+00
-4.10753E-01	3.36654E-01	3.27678E+00	-6.59918E+00
-8.06245E-02	4.05573E-01	3.27675E+00	-6.57258E+00
2.38700E-01	3.14216E-01	3.27668E+00	-6.54620E+00
4.74430E-01	9.00945E-02	3.27661E+00	-6.51999E+00
5.78384E-01	-2.09150E-01	3.27653E+00	-6.49393E+00
5.37300E-01	-5.12792E-01	3.27650E+00	-6.46802E+00
3.72847E-01	-7.56240E-01	3.27654E+00	-6.44230E+00
1.32135E-01	-8.96465E-01	3.27661E+00	-6.41687E+00
-1.27427E-01	-9.19717E-01	3.27661E+00	-6.39168E+00
-3.53864E-01	-8.40278E-01	3.27651E+00	-6.36664E+00
-5.12308E-01	-6.91911E-01	3.27639E+00	-6.34170E+00
-5.90037E-01	-5.15509E-01	3.27629E+00	-6.31689E+00
-5.94097E-01	-3.47623E-01	3.27621E+00	-6.29225E+00
