jMRUI Data Textfile
 
Filename: Gln.txt
 
PointsInDataset: 2048
DatasetsInFile: 1
SamplingInterval: 5.00000E-01
ZeroOrderPhase: 0E0
BeginTime: 0E0
TransmitterFrequency: 1.27740E+08
MagneticField: 0E0
TypeOfNucleus: 0E0
NameOfPatient: 
DateOfExperiment: 
Spectrometer: Vespa-Simulation
AdditionalInfo: see 'readme' file for Vespa-Simulation output synopsis
 
  
Signal and FFT 
sig(real)	sig(imag)	fft(real)	fft(imag)
Signal 1 out of 1 in file
5.65812E+00	-9.29177E-02	2.79897E+00	-2.79110E+00
3.31903E+00	-1.09629E+00	2.79828E+00	-2.75886E+00
-1.40174E+00	-1.44851E+00	2.79752E+00	-2.72663E+00
-4.33619E+00	-9.33446E-01	2.79682E+00	-2.69443E+00
-3.18216E+00	7.08040E-02	2.79633E+00	-2.66235E+00
5.35198E-01	7.17685E-01	2.79603E+00	-2.63051E+00
3.18919E+00	3.26548E-01	2.79590E+00	-2.59906E+00
2.54685E+00	-8.78984E-01	2.79571E+00	-2.56799E+00
-4.13215E-01	-1.73401E+00	2.79547E+00	-2.53722E+00
-2.85122E+00	-1.11856E+00	2.79509E+00	-2.50662E+00
-2.88241E+00	8.21889E-01	2.79468E+00	-2.47619E+00
-1.01072E+00	2.53090E+00	2.79433E+00	-2.44584E+00
8.84459E-01	2.38442E+00	2.79393E+00	-2.41569E+00
1.53580E+00	3.49238E-01	2.79363E+00	-2.38561E+00
1.14274E+00	-1.77859E+00	2.79344E+00	-2.35573E+00
5.85442E-01	-2.00201E+00	2.79335E+00	-2.32611E+00
2.79632E-01	-1.09453E-01	2.79324E+00	-2.29680E+00
7.15752E-03	2.01998E+00	2.79300E+00	-2.26768E+00
-3.76750E-01	2.21595E+00	2.79273E+00	-2.23865E+00
-5.09430E-01	1.68112E-01	2.79244E+00	-2.20974E+00
4.61170E-03	-2.25363E+00	2.79214E+00	-2.18090E+00
8.66664E-01	-2.84620E+00	2.79195E+00	-2.15210E+00
1.16175E+00	-1.20288E+00	2.79188E+00	-2.12345E+00
3.16124E-01	1.01504E+00	2.79197E+00	-2.09509E+00
-1.13838E+00	1.83973E+00	2.79198E+00	-2.06700E+00
-1.95332E+00	8.89954E-01	2.79184E+00	-2.03911E+00
-1.38199E+00	-5.09058E-01	2.79171E+00	-2.01124E+00
6.49285E-02	-9.06321E-01	2.79143E+00	-1.98348E+00
1.13909E+00	-1.81878E-01	2.79127E+00	-1.95565E+00
1.07856E+00	6.17776E-01	2.79127E+00	-1.92796E+00
2.42089E-01	6.57035E-01	2.79130E+00	-1.90053E+00
-4.27534E-01	2.08121E-01	2.79125E+00	-1.87323E+00
-4.08241E-01	9.53516E-02	2.79123E+00	-1.84600E+00
3.12715E-02	4.97825E-01	2.79121E+00	-1.81892E+00
3.53347E-01	6.54676E-01	2.79113E+00	-1.79200E+00
4.02059E-01	-1.27231E-01	2.79095E+00	-1.76503E+00
4.07209E-01	-1.39966E+00	2.79090E+00	-1.73811E+00
4.72248E-01	-1.83679E+00	2.79087E+00	-1.71123E+00
3.28320E-01	-6.92652E-01	2.79097E+00	-1.68445E+00
-2.65030E-01	1.17377E+00	2.79121E+00	-1.65786E+00
-1.00394E+00	1.98573E+00	2.79134E+00	-1.63163E+00
-1.17922E+00	8.56795E-01	2.79118E+00	-1.60538E+00
-4.51367E-01	-1.19203E+00	2.79108E+00	-1.57899E+00
6.24985E-01	-2.16437E+00	2.79102E+00	-1.55270E+00
1.04688E+00	-1.06771E+00	2.79098E+00	-1.52636E+00
4.01698E-01	1.09669E+00	2.79110E+00	-1.50006E+00
-6.39949E-01	2.34124E+00	2.79137E+00	-1.47396E+00
-9.88674E-01	1.62839E+00	2.79153E+00	-1.44810E+00
-2.83901E-01	-2.34901E-01	2.79159E+00	-1.42226E+00
7.30613E-01	-1.54260E+00	2.79162E+00	-1.39646E+00
1.02802E+00	-1.36477E+00	2.79158E+00	-1.37067E+00
4.05443E-01	-2.35171E-01	2.79158E+00	-1.34483E+00
-3.55028E-01	6.57339E-01	2.79162E+00	-1.31901E+00
-4.27075E-01	7.06745E-01	2.79174E+00	-1.29324E+00
1.15246E-01	2.43872E-01	2.79188E+00	-1.26752E+00
4.38484E-01	-1.35449E-01	2.79210E+00	-1.24188E+00
-2.19992E-03	-2.83617E-01	2.79227E+00	-1.21637E+00
-7.53772E-01	-4.32781E-01	2.79244E+00	-1.19089E+00
-8.60442E-01	-6.15949E-01	2.79251E+00	-1.16549E+00
-2.01857E-02	-4.73426E-01	2.79255E+00	-1.14004E+00
9.52737E-01	2.34321E-01	2.79257E+00	-1.11450E+00
9.63040E-01	1.08541E+00	2.79273E+00	-1.08898E+00
-1.19581E-01	1.24081E+00	2.79294E+00	-1.06348E+00
-1.21773E+00	3.46650E-01	2.79322E+00	-1.03811E+00
-1.14516E+00	-9.21699E-01	2.79342E+00	-1.01280E+00
1.14395E-01	-1.40492E+00	2.79362E+00	-9.87570E-01
1.34718E+00	-6.17701E-01	2.79366E+00	-9.62271E-01
1.35531E+00	7.10787E-01	2.79379E+00	-9.36949E-01
1.78193E-01	1.33643E+00	2.79392E+00	-9.11589E-01
-9.99310E-01	7.29381E-01	2.79402E+00	-8.86267E-01
-1.10516E+00	-4.51269E-01	2.79418E+00	-8.60840E-01
-2.27459E-01	-1.09645E+00	2.79437E+00	-8.35478E-01
6.22018E-01	-7.60035E-01	2.79461E+00	-8.10113E-01
6.58790E-01	2.89685E-02	2.79476E+00	-7.84783E-01
7.89801E-02	4.78871E-01	2.79499E+00	-7.59362E-01
-3.41466E-01	3.78496E-01	2.79525E+00	-7.33968E-01
-2.14350E-01	1.42847E-01	2.79552E+00	-7.08666E-01
8.85637E-02	1.41708E-01	2.79567E+00	-6.83278E-01
2.75957E-02	2.16322E-01	2.79590E+00	-6.57829E-01
-3.48374E-01	-2.09426E-02	2.79618E+00	-6.32388E-01
-4.42689E-01	-5.31408E-01	2.79647E+00	-6.06997E-01
9.38895E-02	-7.37919E-01	2.79665E+00	-5.81620E-01
8.06385E-01	-1.90012E-01	2.79680E+00	-5.56162E-01
8.59516E-01	7.64471E-01	2.79691E+00	-5.30604E-01
1.46582E-02	1.18221E+00	2.79705E+00	-5.04952E-01
-9.78962E-01	5.02952E-01	2.79723E+00	-4.79196E-01
-1.10415E+00	-7.52453E-01	2.79749E+00	-4.53389E-01
-1.67279E-01	-1.40588E+00	2.79784E+00	-4.27522E-01
9.44568E-01	-7.98830E-01	2.79832E+00	-4.01719E-01
1.15731E+00	5.12115E-01	2.79877E+00	-3.76064E-01
3.06484E-01	1.30002E+00	2.79900E+00	-3.50426E-01
-7.31965E-01	8.89637E-01	2.79912E+00	-3.24529E-01
-9.83778E-01	-2.21312E-01	2.79944E+00	-2.98435E-01
-3.47873E-01	-9.50325E-01	2.79986E+00	-2.72532E-01
4.19353E-01	-7.39868E-01	2.80011E+00	-2.46665E-01
5.94633E-01	-5.09251E-03	2.80013E+00	-2.20625E-01
2.11499E-01	4.61413E-01	2.80021E+00	-1.94316E-01
-1.41205E-01	3.61845E-01	2.80033E+00	-1.67784E-01
-9.93747E-02	6.82531E-02	2.80076E+00	-1.41159E-01
8.69405E-02	1.76236E-02	2.80118E+00	-1.14656E-01
-1.93738E-02	1.45642E-01	2.80168E+00	-8.80697E-02
-3.88453E-01	5.11752E-02	2.80207E+00	-6.15998E-02
-4.98042E-01	-3.65012E-01	2.80240E+00	-3.49249E-02
-3.01692E-03	-6.46050E-01	2.80277E+00	-8.26096E-03
7.20607E-01	-2.94980E-01	2.80295E+00	1.86021E-02
8.82051E-01	5.31687E-01	2.80329E+00	4.56609E-02
1.61441E-01	1.03690E+00	2.80368E+00	7.27119E-02
-8.31159E-01	5.99763E-01	2.80387E+00	9.99136E-02
-1.11184E+00	-4.80321E-01	2.80447E+00	1.27408E-01
-3.48943E-01	-1.19126E+00	2.80499E+00	1.54467E-01
7.51530E-01	-8.20703E-01	2.80497E+00	1.81799E-01
1.14485E+00	2.91578E-01	2.80530E+00	2.09749E-01
4.99047E-01	1.08373E+00	2.80582E+00	2.37385E-01
-5.09649E-01	8.45510E-01	2.80597E+00	2.65179E-01
-9.34889E-01	-1.00058E-01	2.80627E+00	2.93522E-01
-5.05280E-01	-7.99559E-01	2.80701E+00	3.21722E-01
2.14317E-01	-6.71629E-01	2.80745E+00	3.49699E-01
5.24315E-01	-2.09626E-02	2.80766E+00	3.78106E-01
3.08732E-01	4.19781E-01	2.80808E+00	4.06746E-01
2.33270E-03	3.18871E-01	2.80853E+00	4.35424E-01
-3.89695E-02	3.26716E-03	2.80890E+00	4.64248E-01
5.06946E-02	-6.26419E-02	2.80930E+00	4.93331E-01
-7.22437E-02	1.23354E-01	2.80981E+00	5.22524E-01
-4.00395E-01	1.54952E-01	2.81030E+00	5.51818E-01
-4.94168E-01	-1.81348E-01	2.81074E+00	5.81221E-01
-3.26784E-02	-5.43270E-01	2.81112E+00	6.10844E-01
6.70481E-01	-4.02822E-01	2.81146E+00	6.40722E-01
8.80493E-01	2.66931E-01	2.81192E+00	6.70838E-01
2.37004E-01	8.36702E-01	2.81237E+00	7.01075E-01
-7.50483E-01	6.58357E-01	2.81283E+00	7.31544E-01
-1.13075E+00	-1.86236E-01	2.81331E+00	7.62265E-01
-4.75161E-01	-8.94507E-01	2.81396E+00	7.93172E-01
6.42808E-01	-7.57979E-01	2.81461E+00	8.24054E-01
1.19044E+00	8.55123E-02	2.81505E+00	8.55102E-01
6.91377E-01	7.90177E-01	2.81534E+00	8.86551E-01
-3.36960E-01	6.88213E-01	2.81581E+00	9.18429E-01
-9.46354E-01	-3.80425E-02	2.81643E+00	9.50385E-01
-6.89639E-01	-6.09118E-01	2.81695E+00	9.82491E-01
4.14687E-02	-5.08917E-01	2.81730E+00	1.01509E+00
5.33564E-01	1.18069E-02	2.81835E+00	1.04806E+00
4.76192E-01	3.10249E-01	2.81917E+00	1.08036E+00
1.27407E-01	1.19920E-01	2.81925E+00	1.11339E+00
-1.29058E-01	-1.86255E-01	2.81991E+00	1.14715E+00
-2.14902E-01	-1.12022E-01	2.82055E+00	1.18053E+00
-2.85965E-01	3.12217E-01	2.82071E+00	1.21469E+00
-3.60121E-01	5.37046E-01	2.82147E+00	1.24935E+00
-2.16646E-01	1.64375E-01	2.82227E+00	1.28396E+00
2.57877E-01	-5.10954E-01	2.82301E+00	1.31887E+00
7.44894E-01	-7.57091E-01	2.82386E+00	1.35406E+00
7.08193E-01	-2.14402E-01	2.82449E+00	1.38929E+00
9.48684E-03	6.44887E-01	2.82502E+00	1.42521E+00
-7.89528E-01	9.53013E-01	2.82564E+00	1.46144E+00
-8.98274E-01	3.41864E-01	2.82638E+00	1.49801E+00
-1.29625E-01	-6.55578E-01	2.82687E+00	1.53496E+00
8.14654E-01	-1.12524E+00	2.82785E+00	1.57259E+00
9.95664E-01	-6.64131E-01	2.82881E+00	1.60991E+00
1.97982E-01	2.70698E-01	2.82929E+00	1.64790E+00
-8.19530E-01	8.62386E-01	2.83006E+00	1.68653E+00
-1.08137E+00	7.09312E-01	2.83090E+00	1.72543E+00
-3.81913E-01	9.52801E-02	2.83184E+00	1.76477E+00
5.35438E-01	-4.10129E-01	2.83276E+00	1.80438E+00
7.80294E-01	-4.97051E-01	2.83370E+00	1.84447E+00
2.28005E-01	-2.55248E-01	2.83455E+00	1.88479E+00
-4.20897E-01	8.60797E-02	2.83515E+00	1.92577E+00
-4.50699E-01	3.92721E-01	2.83585E+00	1.96750E+00
1.05793E-01	5.80334E-01	2.83677E+00	2.00973E+00
5.68990E-01	4.92467E-01	2.83779E+00	2.05244E+00
4.14704E-01	1.12474E-02	2.83894E+00	2.09559E+00
-1.48066E-01	-6.70541E-01	2.84011E+00	2.13912E+00
-4.53891E-01	-1.02993E+00	2.84120E+00	2.18312E+00
-1.63259E-01	-6.47028E-01	2.84220E+00	2.22771E+00
3.51697E-01	2.88332E-01	2.84320E+00	2.27295E+00
4.43846E-01	1.00549E+00	2.84421E+00	2.31881E+00
-6.20859E-02	8.29048E-01	2.84527E+00	2.36536E+00
-6.60323E-01	-1.24753E-01	2.84638E+00	2.41253E+00
-7.18722E-01	-9.84390E-01	2.84755E+00	2.46039E+00
-1.66218E-01	-9.32316E-01	2.84879E+00	2.50889E+00
4.44666E-01	2.78358E-05	2.85008E+00	2.55805E+00
5.44459E-01	9.64717E-01	2.85136E+00	2.60788E+00
1.34555E-01	1.12761E+00	2.85265E+00	2.65844E+00
-2.72362E-01	4.44301E-01	2.85392E+00	2.70981E+00
-2.44365E-01	-3.87634E-01	2.85528E+00	2.76201E+00
1.28176E-01	-6.83494E-01	2.85670E+00	2.81503E+00
4.02119E-01	-4.00134E-01	2.85825E+00	2.86886E+00
3.10623E-01	-1.93537E-02	2.85984E+00	2.92342E+00
2.68355E-02	7.54491E-02	2.86137E+00	2.97882E+00
-1.04245E-01	-2.71441E-02	2.86287E+00	3.03518E+00
-1.24357E-03	-2.36095E-02	2.86441E+00	3.09257E+00
7.96383E-02	1.18265E-01	2.86602E+00	3.15096E+00
-1.00804E-01	9.80772E-02	2.86770E+00	3.21036E+00
-4.31085E-01	-2.62485E-01	2.86942E+00	3.27088E+00
-5.49020E-01	-6.44045E-01	2.87136E+00	3.33247E+00
-2.62512E-01	-4.86250E-01	2.87336E+00	3.39501E+00
