jMRUI Data Textfile
 
Filename: Glu.txt
 
PointsInDataset: 2048
DatasetsInFile: 1
SamplingInterval: 5.00000E-01
ZeroOrderPhase: 0E0
BeginTime: 0E0
TransmitterFrequency: 1.27740E+08
MagneticField: 0E0
TypeOfNucleus: 0E0
NameOfPatient: 
DateOfExperiment: 
Spectrometer: Vespa-Simulation
AdditionalInfo: see 'readme' file for Vespa-Simulation output synopsis
 
  
Signal and FFT 
sig(real)	sig(imag)	fft(real)	fft(imag)
Signal 1 out of 1 in file
3.89034E+00	-1.09411E-01	1.89037E+00	-4.78722E+00
2.28367E+00	-2.99422E+00	1.88995E+00	-4.76197E+00
-8.97686E-01	-3.33259E+00	1.88954E+00	-4.73701E+00
-2.85050E+00	-1.01761E+00	1.88912E+00	-4.71233E+00
-2.00043E+00	1.69021E+00	1.88871E+00	-4.68793E+00
6.11679E-01	2.30672E+00	1.88831E+00	-4.66375E+00
2.39159E+00	4.00574E-01	1.88797E+00	-4.63984E+00
1.63642E+00	-2.10317E+00	1.88763E+00	-4.61621E+00
-9.43904E-01	-2.79130E+00	1.88730E+00	-4.59285E+00
-2.98173E+00	-9.87613E-01	1.88696E+00	-4.56967E+00
-2.67427E+00	1.71751E+00	1.88669E+00	-4.54676E+00
-3.65612E-01	3.01561E+00	1.88648E+00	-4.52413E+00
1.90151E+00	1.96912E+00	1.88619E+00	-4.50177E+00
2.31180E+00	-2.79863E-01	1.88590E+00	-4.47961E+00
8.34634E-01	-1.70260E+00	1.88562E+00	-4.45764E+00
-9.42608E-01	-1.24221E+00	1.88536E+00	-4.43590E+00
-1.38596E+00	3.79654E-01	1.88511E+00	-4.41433E+00
-2.48204E-01	1.50899E+00	1.88490E+00	-4.39299E+00
1.28485E+00	1.12077E+00	1.88474E+00	-4.37186E+00
1.80471E+00	-3.65962E-01	1.88458E+00	-4.35099E+00
9.22152E-01	-1.63367E+00	1.88442E+00	-4.33030E+00
-5.43401E-01	-1.70576E+00	1.88427E+00	-4.30987E+00
-1.42960E+00	-7.04088E-01	1.88403E+00	-4.28964E+00
-1.23563E+00	4.43344E-01	1.88377E+00	-4.26946E+00
-3.88287E-01	9.05260E-01	1.88365E+00	-4.24946E+00
3.05885E-01	5.79499E-01	1.88356E+00	-4.22967E+00
3.86595E-01	-1.24246E-02	1.88349E+00	-4.21016E+00
6.63455E-04	-3.01974E-01	1.88336E+00	-4.19077E+00
-3.90445E-01	-1.22677E-01	1.88330E+00	-4.17163E+00
-4.53732E-01	2.93330E-01	1.88316E+00	-4.15264E+00
-1.74469E-01	6.14829E-01	1.88301E+00	-4.13382E+00
2.55333E-01	6.57413E-01	1.88285E+00	-4.11507E+00
6.23145E-01	4.15672E-01	1.88279E+00	-4.09647E+00
7.76927E-01	-1.32508E-02	1.88278E+00	-4.07807E+00
6.31769E-01	-4.68831E-01	1.88278E+00	-4.05989E+00
2.11250E-01	-7.39151E-01	1.88275E+00	-4.04193E+00
-2.92025E-01	-6.50636E-01	1.88262E+00	-4.02409E+00
-5.71895E-01	-2.29920E-01	1.88255E+00	-4.00631E+00
-4.29251E-01	2.33489E-01	1.88250E+00	-3.98875E+00
1.25759E-02	3.69680E-01	1.88240E+00	-3.97129E+00
3.47299E-01	5.58016E-02	1.88239E+00	-3.95391E+00
2.20065E-01	-4.19436E-01	1.88243E+00	-3.93673E+00
-3.19977E-01	-5.67208E-01	1.88250E+00	-3.91979E+00
-8.05815E-01	-1.44300E-01	1.88243E+00	-3.90300E+00
-7.45981E-01	5.76603E-01	1.88240E+00	-3.88626E+00
-9.05942E-02	1.00254E+00	1.88239E+00	-3.86967E+00
6.76117E-01	7.42011E-01	1.88235E+00	-3.85327E+00
9.38783E-01	-1.99123E-02	1.88227E+00	-3.83689E+00
5.00627E-01	-6.59541E-01	1.88230E+00	-3.82063E+00
-2.29017E-01	-6.62224E-01	1.88233E+00	-3.80455E+00
-5.97170E-01	-8.39008E-02	1.88238E+00	-3.78861E+00
-2.95708E-01	5.02819E-01	1.88236E+00	-3.77280E+00
3.64181E-01	5.33313E-01	1.88242E+00	-3.75709E+00
7.43581E-01	-3.55102E-02	1.88242E+00	-3.74149E+00
4.61994E-01	-6.92576E-01	1.88247E+00	-3.72610E+00
-2.61056E-01	-8.43240E-01	1.88246E+00	-3.71072E+00
-8.13642E-01	-3.44741E-01	1.88246E+00	-3.69551E+00
-7.44602E-01	3.79247E-01	1.88254E+00	-3.68034E+00
-1.52584E-01	7.32485E-01	1.88256E+00	-3.66540E+00
4.29700E-01	4.73527E-01	1.88258E+00	-3.65049E+00
5.26149E-01	-9.96712E-02	1.88255E+00	-3.63570E+00
1.25155E-01	-4.50803E-01	1.88262E+00	-3.62095E+00
-3.50465E-01	-2.92418E-01	1.88268E+00	-3.60635E+00
-4.52043E-01	1.84669E-01	1.88278E+00	-3.59188E+00
-1.01366E-01	5.21185E-01	1.88284E+00	-3.57751E+00
3.72949E-01	4.15962E-01	1.88295E+00	-3.56325E+00
5.58286E-01	-2.52082E-02	1.88305E+00	-3.54915E+00
3.22411E-01	-4.19139E-01	1.88309E+00	-3.53518E+00
-1.02586E-01	-4.61326E-01	1.88305E+00	-3.52125E+00
-3.59161E-01	-1.74127E-01	1.88303E+00	-3.50732E+00
-2.81030E-01	1.55258E-01	1.88309E+00	-3.49348E+00
-4.35992E-03	2.54130E-01	1.88316E+00	-3.47973E+00
1.94454E-01	9.10580E-02	1.88329E+00	-3.46608E+00
1.55662E-01	-1.37699E-01	1.88348E+00	-3.45257E+00
-4.78788E-02	-2.13842E-01	1.88363E+00	-3.43927E+00
-2.12887E-01	-8.71502E-02	1.88368E+00	-3.42606E+00
-2.01593E-01	1.11037E-01	1.88368E+00	-3.41287E+00
-4.63334E-02	2.11584E-01	1.88373E+00	-3.39972E+00
1.10152E-01	1.55874E-01	1.88374E+00	-3.38666E+00
1.55336E-01	2.06394E-02	1.88381E+00	-3.37360E+00
9.10331E-02	-7.62499E-02	1.88396E+00	-3.36068E+00
1.55560E-03	-8.16225E-02	1.88412E+00	-3.34790E+00
-3.88183E-02	-3.06218E-02	1.88423E+00	-3.33526E+00
-2.32497E-02	1.11320E-02	1.88428E+00	-3.32264E+00
6.21204E-03	1.36524E-02	1.88439E+00	-3.31011E+00
1.44167E-02	-4.87520E-03	1.88443E+00	-3.29768E+00
3.14386E-03	-1.45884E-02	1.88445E+00	-3.28523E+00
-5.87383E-03	-9.12505E-03	1.88463E+00	-3.27283E+00
-3.58216E-03	-3.75410E-03	1.88474E+00	-3.26066E+00
-1.83478E-03	-8.36755E-03	1.88486E+00	-3.24844E+00
-1.25159E-02	-1.24625E-02	1.88498E+00	-3.23640E+00
-2.71911E-02	4.22454E-04	1.88516E+00	-3.22436E+00
-2.35658E-02	2.80113E-02	1.88522E+00	-3.21262E+00
7.85893E-03	4.52155E-02	1.88518E+00	-3.20065E+00
4.73772E-02	2.78288E-02	1.88541E+00	-3.18879E+00
6.00139E-02	-2.00739E-02	1.88549E+00	-3.17720E+00
2.79643E-02	-6.42526E-02	1.88554E+00	-3.16546E+00
-2.98715E-02	-6.80919E-02	1.88568E+00	-3.15386E+00
-7.09673E-02	-2.51269E-02	1.88593E+00	-3.14230E+00
-6.41587E-02	3.34902E-02	1.88601E+00	-3.13109E+00
-1.60035E-02	6.37324E-02	1.88595E+00	-3.11962E+00
3.41470E-02	4.47000E-02	1.88620E+00	-3.10826E+00
4.62490E-02	-4.25357E-03	1.88630E+00	-3.09718E+00
1.24260E-02	-3.92830E-02	1.88621E+00	-3.08592E+00
-3.60340E-02	-2.79933E-02	1.88642E+00	-3.07464E+00
-5.35032E-02	2.30589E-02	1.88671E+00	-3.06365E+00
-1.76319E-02	7.16682E-02	1.88673E+00	-3.05283E+00
4.99880E-02	7.28089E-02	1.88681E+00	-3.04174E+00
9.79504E-02	1.62333E-02	1.88707E+00	-3.03101E+00
8.51045E-02	-6.16177E-02	1.88706E+00	-3.02029E+00
1.56674E-02	-1.03557E-01	1.88706E+00	-3.00948E+00
-6.05063E-02	-7.72850E-02	1.88726E+00	-2.99870E+00
-8.61484E-02	-4.00180E-03	1.88739E+00	-2.98811E+00
-4.42389E-02	5.62440E-02	1.88756E+00	-2.97753E+00
2.53854E-02	5.38339E-02	1.88768E+00	-2.96708E+00
5.78780E-02	-6.64090E-03	1.88782E+00	-2.95663E+00
1.97324E-02	-6.74049E-02	1.88793E+00	-2.94633E+00
-5.87685E-02	-6.63218E-02	1.88795E+00	-2.93600E+00
-1.06315E-01	6.56180E-03	1.88800E+00	-2.92566E+00
-7.24907E-02	9.54395E-02	1.88821E+00	-2.91530E+00
2.44165E-02	1.24030E-01	1.88843E+00	-2.90525E+00
1.08495E-01	6.29708E-02	1.88845E+00	-2.89517E+00
1.10374E-01	-4.06020E-02	1.88858E+00	-2.88502E+00
2.96068E-02	-1.00918E-01	1.88881E+00	-2.87499E+00
-6.19088E-02	-6.86156E-02	1.88901E+00	-2.86522E+00
-8.20760E-02	2.35166E-02	1.88889E+00	-2.85537E+00
-1.28961E-02	8.76471E-02	1.88900E+00	-2.84530E+00
8.07233E-02	5.97062E-02	1.88936E+00	-2.83547E+00
1.07800E-01	-4.02247E-02	1.88943E+00	-2.82603E+00
3.48385E-02	-1.22684E-01	1.88927E+00	-2.81618E+00
-8.00757E-02	-1.08655E-01	1.88960E+00	-2.80628E+00
-1.36461E-01	-3.34686E-03	1.88994E+00	-2.79686E+00
-8.20585E-02	1.04622E-01	1.88997E+00	-2.78759E+00
3.73828E-02	1.21034E-01	1.88970E+00	-2.77792E+00
1.16651E-01	3.17563E-02	1.89020E+00	-2.76815E+00
8.52636E-02	-8.24528E-02	1.89042E+00	-2.75920E+00
-2.78708E-02	-1.17593E-01	1.89005E+00	-2.74976E+00
-1.19370E-01	-4.06211E-02	1.89048E+00	-2.74003E+00
-1.04564E-01	7.97829E-02	1.89077E+00	-2.73100E+00
5.48449E-03	1.34687E-01	1.89093E+00	-2.72191E+00
1.13340E-01	7.33214E-02	1.89080E+00	-2.71281E+00
1.22688E-01	-5.08835E-02	1.89107E+00	-2.70349E+00
2.46616E-02	-1.28014E-01	1.89116E+00	-2.69466E+00
-9.44349E-02	-8.95149E-02	1.89105E+00	-2.68549E+00
-1.29698E-01	3.16799E-02	1.89125E+00	-2.67634E+00
-4.91464E-02	1.30953E-01	1.89140E+00	-2.66732E+00
8.00440E-02	1.23032E-01	1.89171E+00	-2.65830E+00
1.50734E-01	1.37327E-02	1.89203E+00	-2.64963E+00
1.06369E-01	-1.07727E-01	1.89202E+00	-2.64101E+00
-1.45124E-02	-1.45179E-01	1.89200E+00	-2.63218E+00
-1.13655E-01	-7.37186E-02	1.89212E+00	-2.62338E+00
-1.14544E-01	4.35920E-02	1.89222E+00	-2.61469E+00
-2.22362E-02	1.09622E-01	1.89229E+00	-2.60596E+00
8.34143E-02	7.09192E-02	1.89244E+00	-2.59727E+00
1.11822E-01	-4.11546E-02	1.89263E+00	-2.58867E+00
3.23645E-02	-1.34797E-01	1.89274E+00	-2.58016E+00
-1.00336E-01	-1.27578E-01	1.89285E+00	-2.57157E+00
-1.84539E-01	-1.07078E-02	1.89307E+00	-2.56305E+00
-1.46782E-01	1.38977E-01	1.89331E+00	-2.55467E+00
-1.42448E-03	2.11193E-01	1.89349E+00	-2.54636E+00
1.51919E-01	1.45349E-01	1.89364E+00	-2.53818E+00
1.98502E-01	-1.59454E-02	1.89357E+00	-2.52997E+00
1.00053E-01	-1.50012E-01	1.89354E+00	-2.52161E+00
-6.45862E-02	-1.47108E-01	1.89360E+00	-2.51322E+00
-1.52851E-01	-5.84140E-03	1.89378E+00	-2.50485E+00
-7.54072E-02	1.51782E-01	1.89406E+00	-2.49661E+00
1.16511E-01	1.72788E-01	1.89434E+00	-2.48853E+00
2.57251E-01	7.68164E-03	1.89451E+00	-2.48059E+00
2.00837E-01	-2.28849E-01	1.89457E+00	-2.47261E+00
-4.30037E-02	-3.38186E-01	1.89460E+00	-2.46461E+00
-2.95984E-01	-2.06000E-01	1.89468E+00	-2.45656E+00
-3.50404E-01	8.44427E-02	1.89479E+00	-2.44858E+00
-1.51592E-01	3.05247E-01	1.89493E+00	-2.44059E+00
1.39128E-01	2.73928E-01	1.89510E+00	-2.43268E+00
2.71782E-01	2.04454E-02	1.89529E+00	-2.42485E+00
1.26771E-01	-2.24484E-01	1.89541E+00	-2.41708E+00
-1.66992E-01	-2.25261E-01	1.89551E+00	-2.40932E+00
-3.32150E-01	4.29296E-02	1.89560E+00	-2.40155E+00
-1.86385E-01	3.55010E-01	1.89572E+00	-2.39380E+00
1.82987E-01	4.22292E-01	1.89586E+00	-2.38610E+00
4.77376E-01	1.49663E-01	1.89597E+00	-2.37844E+00
4.39986E-01	-2.65485E-01	1.89610E+00	-2.37079E+00
8.58378E-02	-4.91228E-01	1.89624E+00	-2.36318E+00
-2.99222E-01	-3.46493E-01	1.89641E+00	-2.35563E+00
-3.99903E-01	3.55985E-02	1.89651E+00	-2.34814E+00
-1.46967E-01	3.17253E-01	1.89658E+00	-2.34062E+00
2.17277E-01	2.49717E-01	1.89671E+00	-2.33308E+00
3.47753E-01	-1.04372E-01	1.89687E+00	-2.32565E+00
1.01746E-01	-4.19044E-01	1.89701E+00	-2.31822E+00
-3.27439E-01	-3.87598E-01	1.89713E+00	-2.31084E+00
