jMRUI Data Textfile
 
Filename: Gly.txt
 
PointsInDataset: 2048
DatasetsInFile: 1
SamplingInterval: 5.00000E-01
ZeroOrderPhase: 0E0
BeginTime: 0E0
TransmitterFrequency: 1.27740E+08
MagneticField: 0E0
TypeOfNucleus: 0E0
NameOfPatient: 
DateOfExperiment: 
Spectrometer: Vespa-Simulation
AdditionalInfo: see 'readme' file for Vespa-Simulation output synopsis
 
  
Signal and FFT 
sig(real)	sig(imag)	fft(real)	fft(imag)
Signal 1 out of 1 in file
2.00000E+00	0.00000E+00	1.04455E+00	-4.24861E+00
1.78164E+00	-8.87832E-01	1.04402E+00	-4.21952E+00
1.19299E+00	-1.58180E+00	1.04350E+00	-4.19089E+00
3.60556E-01	-1.93868E+00	1.04286E+00	-4.16264E+00
-5.39423E-01	-1.88707E+00	1.04229E+00	-4.13458E+00
-1.31823E+00	-1.44158E+00	1.04187E+00	-4.10696E+00
-1.81424E+00	-6.99003E-01	1.04145E+00	-4.07979E+00
-1.92646E+00	1.82688E-01	1.04086E+00	-4.05303E+00
-1.63503E+00	1.01793E+00	1.04026E+00	-4.02637E+00
-1.00464E+00	1.63260E+00	1.03984E+00	-4.00010E+00
-1.70215E-01	1.90033E+00	1.03943E+00	-3.97426E+00
6.91958E-01	1.76841E+00	1.03873E+00	-3.94880E+00
1.40144E+00	1.26816E+00	1.03822E+00	-3.92309E+00
1.81138E+00	5.07580E-01	1.03818E+00	-3.89824E+00
1.83894E+00	-3.51941E-01	1.03751E+00	-3.87389E+00
1.48193E+00	-1.12985E+00	1.03684E+00	-3.84921E+00
8.18568E-01	-1.66434E+00	1.03662E+00	-3.82507E+00
-9.63415E-03	-1.84600E+00	1.03613E+00	-3.80134E+00
-8.28043E-01	-1.64018E+00	1.03561E+00	-3.77773E+00
-1.46574E+00	-1.09352E+00	1.03519E+00	-3.75430E+00
-1.79114E+00	-3.23464E-01	1.03490E+00	-3.73124E+00
-1.73917E+00	5.06970E-01	1.03454E+00	-3.70850E+00
-1.32423E+00	1.22367E+00	1.03418E+00	-3.68600E+00
-6.36447E-01	1.67791E+00	1.03384E+00	-3.66375E+00
1.77895E-01	1.77725E+00	1.03352E+00	-3.64179E+00
9.47422E-01	1.50423E+00	1.03314E+00	-3.62009E+00
1.51173E+00	9.19422E-01	1.03274E+00	-3.59858E+00
1.75483E+00	1.47954E-01	1.03238E+00	-3.57725E+00
1.62891E+00	-6.47197E-01	1.03212E+00	-3.55616E+00
1.16377E+00	-1.29963E+00	1.03194E+00	-3.53542E+00
4.59783E-01	-1.67435E+00	1.03160E+00	-3.51511E+00
-3.33689E-01	-1.69565E+00	1.03106E+00	-3.49483E+00
-1.04999E+00	-1.36238E+00	1.03059E+00	-3.47465E+00
-1.54013E+00	-7.47533E-01	1.03018E+00	-3.45466E+00
-1.70382E+00	1.77847E-02	1.02978E+00	-3.43486E+00
-1.50990E+00	7.72186E-01	1.02943E+00	-3.41524E+00
-1.00227E+00	1.35814E+00	1.02913E+00	-3.39583E+00
-2.89930E-01	1.65478E+00	1.02888E+00	-3.37663E+00
4.76301E-01	1.60282E+00	1.02864E+00	-3.35767E+00
1.13582E+00	1.21638E+00	1.02843E+00	-3.33894E+00
1.55178E+00	5.79370E-01	1.02817E+00	-3.32045E+00
1.63954E+00	-1.72759E-01	1.02791E+00	-3.30213E+00
1.38385E+00	-8.81708E-01	1.02762E+00	-3.28402E+00
8.41346E-01	-1.39976E+00	1.02733E+00	-3.26605E+00
1.28120E-01	-1.62042E+00	1.02699E+00	-3.24829E+00
-6.05211E-01	-1.50037E+00	1.02667E+00	-3.23064E+00
-1.20517E+00	-1.06790E+00	1.02633E+00	-3.21305E+00
-1.54764E+00	-4.16326E-01	1.02622E+00	-3.19571E+00
-1.56348E+00	3.16164E-01	1.02601E+00	-3.17865E+00
-1.25243E+00	9.75690E-01	1.02575E+00	-3.16176E+00
-6.82555E-01	1.42514E+00	1.02548E+00	-3.14498E+00
2.46016E-02	1.57254E+00	1.02521E+00	-3.12836E+00
7.20002E-01	1.38992E+00	1.02493E+00	-3.11188E+00
1.25839E+00	9.18556E-01	1.02469E+00	-3.09550E+00
1.52877E+00	2.59634E-01	1.02451E+00	-3.07930E+00
1.47711E+00	-4.47348E-01	1.02436E+00	-3.06332E+00
1.11725E+00	-1.05423E+00	1.02414E+00	-3.04753E+00
5.27284E-01	-1.43509E+00	1.02389E+00	-3.03184E+00
-1.67334E-01	-1.51247E+00	1.02368E+00	-3.01628E+00
-8.20484E-01	-1.27305E+00	1.02348E+00	-3.00090E+00
-1.29603E+00	-7.69839E-01	1.02319E+00	-2.98570E+00
-1.49627E+00	-1.10449E-01	1.02287E+00	-2.97045E+00
-1.38194E+00	5.65819E-01	1.02276E+00	-2.95538E+00
-9.79871E-01	1.11751E+00	1.02258E+00	-2.94056E+00
-3.76795E-01	1.43049E+00	1.02236E+00	-2.92578E+00
2.99332E-01	1.44157E+00	1.02226E+00	-2.91121E+00
9.06597E-01	1.15130E+00	1.02203E+00	-2.89681E+00
1.31870E+00	6.23134E-01	1.02178E+00	-2.88247E+00
1.45134E+00	-3.03018E-02	1.02156E+00	-2.86821E+00
1.27944E+00	-6.71241E-01	1.02139E+00	-2.85406E+00
8.41767E-01	-1.16593E+00	1.02126E+00	-2.84007E+00
2.32279E-01	-1.41230E+00	1.02115E+00	-2.82623E+00
-4.20000E-01	-1.36123E+00	1.02100E+00	-2.81256E+00
-9.78422E-01	-1.02615E+00	1.02081E+00	-2.79899E+00
-1.32713E+00	-4.79771E-01	1.02065E+00	-2.78551E+00
-1.39521E+00	1.61754E-01	1.02053E+00	-2.77218E+00
-1.17109E+00	7.63425E-01	1.02032E+00	-2.75906E+00
-7.04319E-01	1.19994E+00	1.01997E+00	-2.74595E+00
-9.47370E-02	1.38159E+00	1.01971E+00	-2.73275E+00
5.28926E-01	1.27280E+00	1.01959E+00	-2.71975E+00
1.03618E+00	8.99054E-01	1.01948E+00	-2.70681E+00
1.32215E+00	3.40909E-01	1.01953E+00	-2.69415E+00
1.32913E+00	-2.83246E-01	1.01937E+00	-2.68179E+00
1.05829E+00	-8.42322E-01	1.01897E+00	-2.66937E+00
5.68818E-01	-1.22015E+00	1.01864E+00	-2.65680E+00
-3.49419E-02	-1.33944E+00	1.01852E+00	-2.64430E+00
-6.25736E-01	-1.17769E+00	1.01848E+00	-2.63201E+00
-1.08020E+00	-7.71351E-01	1.01843E+00	-2.61989E+00
-1.30468E+00	-2.07608E-01	1.01838E+00	-2.60790E+00
-1.25439E+00	3.94234E-01	1.01834E+00	-2.59608E+00
-9.42417E-01	9.08041E-01	1.01819E+00	-2.58444E+00
-4.36453E-01	1.22725E+00	1.01788E+00	-2.57282E+00
1.56003E-01	1.28700E+00	1.01756E+00	-2.56111E+00
7.10298E-01	1.07723E+00	1.01741E+00	-2.54940E+00
1.11093E+00	6.44323E-01	1.01734E+00	-2.53791E+00
1.27567E+00	8.08044E-02	1.01726E+00	-2.52652E+00
1.17225E+00	-4.94315E-01	1.01717E+00	-2.51525E+00
8.24824E-01	-9.60733E-01	1.01707E+00	-2.50417E+00
3.08307E-01	-1.22199E+00	1.01684E+00	-2.49309E+00
-2.67822E-01	-1.22543E+00	1.01665E+00	-2.48207E+00
-7.82576E-01	-9.72738E-01	1.01643E+00	-2.47105E+00
-1.12895E+00	-5.19127E-01	1.01628E+00	-2.46009E+00
-1.23614E+00	3.86870E-02	1.01619E+00	-2.44916E+00
-1.08400E+00	5.83214E-01	1.01623E+00	-2.43839E+00
-7.06741E-01	1.00075E+00	1.01627E+00	-2.42779E+00
-1.85354E-01	1.20521E+00	1.01629E+00	-2.41741E+00
3.69906E-01	1.15591E+00	1.01617E+00	-2.40712E+00
8.42651E-01	8.65490E-01	1.01597E+00	-2.39689E+00
1.13486E+00	3.96920E-01	1.01567E+00	-2.38663E+00
1.18715E+00	-1.50174E-01	1.01542E+00	-2.37634E+00
9.90870E-01	-6.60782E-01	1.01524E+00	-2.36600E+00
5.89346E-01	-1.02850E+00	1.01529E+00	-2.35583E+00
6.84218E-02	-1.17783E+00	1.01526E+00	-2.34591E+00
-4.61886E-01	-1.07962E+00	1.01512E+00	-2.33604E+00
-8.90722E-01	-7.56698E-01	1.01499E+00	-2.32625E+00
-1.12938E+00	-2.78667E-01	1.01473E+00	-2.31653E+00
-1.12979E+00	2.53088E-01	1.01441E+00	-2.30672E+00
-8.94079E-01	7.26992E-01	1.01417E+00	-2.29681E+00
-4.73731E-01	1.04452E+00	1.01413E+00	-2.28688E+00
4.16781E-02	1.14077E+00	1.01432E+00	-2.27710E+00
5.43516E-01	9.97731E-01	1.01465E+00	-2.26760E+00
9.27087E-01	6.47515E-01	1.01498E+00	-2.25846E+00
1.11331E+00	1.65261E-01	1.01509E+00	-2.24965E+00
1.06512E+00	-3.47006E-01	1.01481E+00	-2.24099E+00
7.94800E-01	-7.81927E-01	1.01413E+00	-2.23215E+00
3.60905E-01	-1.04938E+00	1.01331E+00	-2.22286E+00
-1.44345E-01	-1.09502E+00	1.01282E+00	-2.21306E+00
-6.14689E-01	-9.11383E-01	1.01329E+00	-2.20335E+00
-9.52158E-01	-5.39000E-01	1.01378E+00	-2.19506E+00
-1.08747E+00	-5.75235E-02	1.01283E+00	-2.18634E+00
-9.94269E-01	4.31509E-01	1.01257E+00	-2.17667E+00
-6.94154E-01	8.25773E-01	1.01308E+00	-2.16738E+00
-2.51784E-01	1.04376E+00	1.01371E+00	-2.15874E+00
2.39057E-01	1.04157E+00	1.01408E+00	-2.15056E+00
6.75333E-01	8.21726E-01	1.01405E+00	-2.14258E+00
9.66380E-01	4.32210E-01	1.01366E+00	-2.13452E+00
1.05273E+00	-4.39783E-02	1.01308E+00	-2.12622E+00
9.18296E-01	-5.06460E-01	1.01254E+00	-2.11764E+00
5.93203E-01	-8.58814E-01	1.01223E+00	-2.10893E+00
1.47188E-01	-1.02838E+00	1.01216E+00	-2.10025E+00
-3.25405E-01	-9.81438E-01	1.01226E+00	-2.09177E+00
-7.25558E-01	-7.29826E-01	1.01241E+00	-2.08348E+00
-9.70325E-01	-3.28048E-01	1.01252E+00	-2.07540E+00
-1.01001E+00	1.38519E-01	1.01247E+00	-2.06748E+00
-8.38270E-01	5.71715E-01	1.01227E+00	-2.05947E+00
-4.92947E-01	8.81420E-01	1.01215E+00	-2.05137E+00
-4.78424E-02	1.00401E+00	1.01213E+00	-2.04340E+00
4.03085E-01	9.15628E-01	1.01206E+00	-2.03546E+00
7.65542E-01	6.36717E-01	1.01207E+00	-2.02760E+00
9.64610E-01	2.27356E-01	1.01205E+00	-2.01984E+00
9.60218E-01	-2.25680E-01	1.01201E+00	-2.01218E+00
7.55226E-01	-6.27261E-01	1.01187E+00	-2.00456E+00
3.94312E-01	-8.94036E-01	1.01171E+00	-1.99696E+00
-4.56240E-02	-9.71465E-01	1.01150E+00	-1.98932E+00
-4.71898E-01	-8.45143E-01	1.01135E+00	-1.98166E+00
-7.95552E-01	-5.43380E-01	1.01122E+00	-1.97402E+00
-9.49909E-01	-1.30888E-01	1.01121E+00	-1.96643E+00
-9.04297E-01	3.05089E-01	1.01121E+00	-1.95894E+00
-6.70126E-01	6.73216E-01	1.01123E+00	-1.95157E+00
-2.98151E-01	8.97179E-01	1.01114E+00	-1.94424E+00
1.32681E-01	9.31577E-01	1.01111E+00	-1.93693E+00
5.31742E-01	7.70963E-01	1.01101E+00	-1.92968E+00
8.15932E-01	4.50734E-01	1.01095E+00	-1.92240E+00
9.26936E-01	3.93098E-02	1.01099E+00	-1.91520E+00
8.43179E-01	-3.76470E-01	1.01096E+00	-1.90817E+00
5.83994E-01	-7.09672E-01	1.01082E+00	-1.90113E+00
2.05239E-01	-8.91424E-01	1.01072E+00	-1.89402E+00
-2.12893E-01	-8.85204E-01	1.01070E+00	-1.88699E+00
-5.82611E-01	-6.94046E-01	1.01066E+00	-1.88007E+00
-8.27101E-01	-3.59633E-01	1.01052E+00	-1.87317E+00
-8.96444E-01	4.68027E-02	1.01044E+00	-1.86621E+00
-7.77789E-01	4.39644E-01	1.01045E+00	-1.85935E+00
-4.97698E-01	7.36920E-01	1.01039E+00	-1.85266E+00
-1.16269E-01	8.77393E-01	1.01011E+00	-1.84592E+00
2.85920E-01	8.33210E-01	1.00991E+00	-1.83891E+00
6.24583E-01	6.15310E-01	1.01010E+00	-1.83196E+00
8.29538E-01	2.70861E-01	1.01035E+00	-1.82545E+00
8.59207E-01	-1.26964E-01	1.01025E+00	-1.81902E+00
7.09032E-01	-4.94522E-01	1.01021E+00	-1.81259E+00
4.12087E-01	-7.55284E-01	1.00984E+00	-1.80617E+00
3.18064E-02	-8.55753E-01	1.00959E+00	-1.79934E+00
-3.51513E-01	-7.76457E-01	1.00973E+00	-1.79263E+00
-6.57820E-01	-5.35635E-01	1.00992E+00	-1.78625E+00
-8.23777E-01	-1.85131E-01	1.00989E+00	-1.78005E+00
-8.16017E-01	2.00776E-01	1.00971E+00	-1.77374E+00
-6.37792E-01	5.41102E-01	1.00960E+00	-1.76738E+00
-3.27947E-01	7.65153E-01	1.00950E+00	-1.76106E+00
4.75283E-02	8.27193E-01	1.00939E+00	-1.75477E+00
4.09510E-01	7.15799E-01	1.00929E+00	-1.74842E+00
6.82557E-01	4.55854E-01	1.00929E+00	-1.74213E+00
8.10397E-01	1.03079E-01	1.00932E+00	-1.73592E+00
