jMRUI Data Textfile
 
Filename: GSH.txt
 
PointsInDataset: 2048
DatasetsInFile: 1
SamplingInterval: 5.00000E-01
ZeroOrderPhase: 0E0
BeginTime: 0E0
TransmitterFrequency: 1.27740E+08
MagneticField: 0E0
TypeOfNucleus: 0E0
NameOfPatient: 
DateOfExperiment: 
Spectrometer: Vespa-Simulation
AdditionalInfo: see 'readme' file for Vespa-Simulation output synopsis
 
  
Signal and FFT 
sig(real)	sig(imag)	fft(real)	fft(imag)
Signal 1 out of 1 in file
8.84820E+00	-8.80184E-02	8.19175E+00	-2.34097E+01
6.56347E+00	-3.56868E+00	7.78966E+00	-2.27433E+01
1.58308E+00	-5.21113E+00	7.43931E+00	-2.21245E+01
-2.60967E+00	-4.50853E+00	7.13707E+00	-2.15487E+01
-3.51136E+00	-2.41060E+00	6.87640E+00	-2.10122E+01
-1.42337E+00	-4.83576E-01	6.65080E+00	-2.05120E+01
1.12385E+00	2.41543E-01	6.45448E+00	-2.00448E+01
1.69103E+00	-1.62010E-01	6.28254E+00	-1.96074E+01
-8.12686E-02	-8.45599E-01	6.13109E+00	-1.91968E+01
-2.44303E+00	-9.82688E-01	5.99728E+00	-1.88104E+01
-3.28369E+00	-3.37054E-01	5.87837E+00	-1.84461E+01
-1.97592E+00	7.50032E-01	5.77228E+00	-1.81020E+01
2.82323E-01	1.75740E+00	5.67701E+00	-1.77761E+01
1.75387E+00	2.33155E+00	5.59125E+00	-1.74668E+01
1.75795E+00	2.35212E+00	5.51375E+00	-1.71726E+01
1.11363E+00	1.82473E+00	5.44362E+00	-1.68923E+01
1.14467E+00	8.25060E-01	5.37981E+00	-1.66248E+01
2.29055E+00	-4.52308E-01	5.32164E+00	-1.63691E+01
3.64605E+00	-1.68215E+00	5.26854E+00	-1.61242E+01
3.80704E+00	-2.54697E+00	5.21992E+00	-1.58896E+01
2.18194E+00	-2.92945E+00	5.17510E+00	-1.56644E+01
-4.44470E-01	-2.94536E+00	5.13379E+00	-1.54477E+01
-2.56086E+00	-2.74861E+00	5.09567E+00	-1.52391E+01
-3.14958E+00	-2.30905E+00	5.06053E+00	-1.50381E+01
-2.38615E+00	-1.44008E+00	5.02788E+00	-1.48442E+01
-1.28309E+00	-1.05686E-01	4.99751E+00	-1.46569E+01
-7.17710E-01	1.30439E+00	4.96928E+00	-1.44756E+01
-7.64388E-01	2.09719E+00	4.94297E+00	-1.43003E+01
-8.59720E-01	1.80725E+00	4.91831E+00	-1.41304E+01
-5.08798E-01	6.92808E-01	4.89542E+00	-1.39654E+01
2.13855E-01	-3.25176E-01	4.87427E+00	-1.38054E+01
8.22762E-01	-3.56193E-01	4.85439E+00	-1.36504E+01
1.00015E+00	6.66981E-01	4.83537E+00	-1.34998E+01
9.53769E-01	1.81398E+00	4.81734E+00	-1.33530E+01
1.17071E+00	1.84551E+00	4.80048E+00	-1.32100E+01
1.81639E+00	2.51741E-01	4.78480E+00	-1.30706E+01
2.40655E+00	-2.23362E+00	4.76989E+00	-1.29349E+01
2.13613E+00	-4.11829E+00	4.75587E+00	-1.28023E+01
6.19552E-01	-4.26831E+00	4.74295E+00	-1.26730E+01
-1.62508E+00	-2.74249E+00	4.73072E+00	-1.25472E+01
-3.42611E+00	-6.66868E-01	4.71863E+00	-1.24243E+01
-3.78995E+00	7.06955E-01	4.70732E+00	-1.23036E+01
-2.64448E+00	9.38531E-01	4.69673E+00	-1.21861E+01
-8.83093E-01	5.64603E-01	4.68614E+00	-1.20709E+01
3.26455E-01	4.39706E-01	4.67653E+00	-1.19575E+01
4.07010E-01	9.12052E-01	4.66785E+00	-1.18471E+01
-2.71077E-01	1.57619E+00	4.65895E+00	-1.17392E+01
-7.85907E-01	1.75998E+00	4.65035E+00	-1.16329E+01
-4.49217E-01	1.21959E+00	4.64239E+00	-1.15286E+01
6.62504E-01	3.64546E-01	4.63501E+00	-1.14263E+01
1.82313E+00	-1.75152E-01	4.62795E+00	-1.13261E+01
2.26811E+00	-1.85885E-01	4.62120E+00	-1.12276E+01
1.77526E+00	-7.41902E-02	4.61505E+00	-1.11311E+01
7.62200E-01	-4.34344E-01	4.60890E+00	-1.10368E+01
-1.24851E-01	-1.40052E+00	4.60214E+00	-1.09440E+01
-5.45672E-01	-2.41792E+00	4.59576E+00	-1.08518E+01
-6.74353E-01	-2.67506E+00	4.59017E+00	-1.07610E+01
-9.37429E-01	-1.81423E+00	4.58535E+00	-1.06718E+01
-1.54275E+00	-2.70946E-01	4.58092E+00	-1.05845E+01
-2.22382E+00	1.06935E+00	4.57636E+00	-1.04991E+01
-2.42788E+00	1.58605E+00	4.57161E+00	-1.04149E+01
-1.79050E+00	1.37111E+00	4.56684E+00	-1.03320E+01
-4.91803E-01	1.03078E+00	4.56207E+00	-1.02500E+01
8.18313E-01	1.06107E+00	4.55746E+00	-1.01689E+01
1.48227E+00	1.39020E+00	4.55327E+00	-1.00888E+01
1.31747E+00	1.49982E+00	4.54954E+00	-1.00098E+01
7.28425E-01	9.80639E-01	4.54605E+00	-9.93215E+00
3.56148E-01	-2.36346E-02	4.54278E+00	-9.85564E+00
5.51175E-01	-9.11803E-01	4.53960E+00	-9.78041E+00
1.09915E+00	-1.16888E+00	4.53634E+00	-9.70625E+00
1.41773E+00	-8.40995E-01	4.53298E+00	-9.63301E+00
1.05300E+00	-4.86242E-01	4.52972E+00	-9.56050E+00
5.91365E-02	-6.36404E-01	4.52663E+00	-9.48882E+00
-1.04757E+00	-1.26456E+00	4.52370E+00	-9.41804E+00
-1.70424E+00	-1.75907E+00	4.52090E+00	-9.34804E+00
-1.72287E+00	-1.44904E+00	4.51834E+00	-9.27882E+00
-1.36518E+00	-2.23500E-01	4.51608E+00	-9.21071E+00
-1.03454E+00	1.30784E+00	4.51367E+00	-9.14355E+00
-8.85915E-01	2.26488E+00	4.51112E+00	-9.07715E+00
-7.15064E-01	2.17912E+00	4.50858E+00	-9.01129E+00
-2.18642E-01	1.32911E+00	4.50622E+00	-8.94606E+00
6.32498E-01	4.58941E-01	4.50399E+00	-8.88149E+00
1.47400E+00	1.41787E-01	4.50193E+00	-8.81764E+00
1.81757E+00	3.40780E-01	4.50002E+00	-8.75451E+00
1.47616E+00	5.23612E-01	4.49818E+00	-8.69219E+00
7.52349E-01	1.95678E-01	4.49627E+00	-8.63057E+00
1.97974E-01	-6.36801E-01	4.49431E+00	-8.56948E+00
1.41594E-01	-1.47301E+00	4.49251E+00	-8.50884E+00
4.02685E-01	-1.76258E+00	4.49089E+00	-8.44894E+00
4.59080E-01	-1.37590E+00	4.48918E+00	-8.38974E+00
-6.80472E-02	-6.84779E-01	4.48743E+00	-8.33089E+00
-1.03786E+00	-2.01976E-01	4.48590E+00	-8.27263E+00
-1.86372E+00	-1.21926E-01	4.48437E+00	-8.21496E+00
-1.98478E+00	-1.79516E-01	4.48290E+00	-8.15775E+00
-1.32951E+00	5.67331E-02	4.48150E+00	-8.10117E+00
-3.67394E-01	7.36208E-01	4.48000E+00	-8.04500E+00
2.93539E-01	1.53713E+00	4.47869E+00	-7.98925E+00
4.07779E-01	1.91374E+00	4.47746E+00	-7.93408E+00
2.53718E-01	1.56091E+00	4.47611E+00	-7.87950E+00
3.24302E-01	6.83022E-01	4.47466E+00	-7.82502E+00
8.35036E-01	-1.71438E-01	4.47371E+00	-7.77084E+00
1.49703E+00	-5.63190E-01	4.47303E+00	-7.71765E+00
1.75859E+00	-5.04278E-01	4.47179E+00	-7.66513E+00
1.29688E+00	-3.93410E-01	4.47040E+00	-7.61252E+00
3.18382E-01	-6.11093E-01	4.46945E+00	-7.56018E+00
-5.99527E-01	-1.14302E+00	4.46852E+00	-7.50876E+00
-9.82755E-01	-1.57084E+00	4.46700E+00	-7.45745E+00
-8.30001E-01	-1.44118E+00	4.46587E+00	-7.40579E+00
-5.59289E-01	-6.84649E-01	4.46556E+00	-7.35500E+00
-5.94435E-01	2.90824E-01	4.46480E+00	-7.30505E+00
-9.71067E-01	9.22562E-01	4.46382E+00	-7.25538E+00
-1.31201E+00	9.53339E-01	4.46265E+00	-7.20568E+00
-1.18187E+00	6.26705E-01	4.46207E+00	-7.15636E+00
-4.91912E-01	4.44428E-01	4.46095E+00	-7.10777E+00
4.07945E-01	6.98790E-01	4.45965E+00	-7.05861E+00
1.02294E+00	1.19344E+00	4.45939E+00	-7.00969E+00
1.12022E+00	1.40499E+00	4.45920E+00	-6.96188E+00
8.85652E-01	9.49521E-01	4.45852E+00	-6.91457E+00
7.05059E-01	-5.35231E-02	4.45758E+00	-6.86715E+00
7.85649E-01	-1.04524E+00	4.45707E+00	-6.81990E+00
9.67067E-01	-1.47164E+00	4.45642E+00	-6.77337E+00
8.86776E-01	-1.22680E+00	4.45527E+00	-6.72680E+00
3.38324E-01	-7.09711E-01	4.45454E+00	-6.67986E+00
-5.09513E-01	-4.46472E-01	4.45432E+00	-6.63356E+00
-1.22869E+00	-6.11910E-01	4.45402E+00	-6.58781E+00
-1.47283E+00	-8.76196E-01	4.45343E+00	-6.54240E+00
-1.23612E+00	-7.17961E-01	4.45279E+00	-6.49700E+00
-8.10305E-01	7.00243E-02	4.45229E+00	-6.45185E+00
-4.99398E-01	1.13489E+00	4.45174E+00	-6.40698E+00
-3.64092E-01	1.81074E+00	4.45094E+00	-6.36230E+00
-2.22285E-01	1.66087E+00	4.45027E+00	-6.31740E+00
1.16126E-01	8.49715E-01	4.44991E+00	-6.27266E+00
6.21429E-01	1.62802E-02	4.44988E+00	-6.22837E+00
1.04553E+00	-2.53884E-01	4.44968E+00	-6.18449E+00
1.14917E+00	8.85288E-02	4.44948E+00	-6.14085E+00
9.31402E-01	5.31543E-01	4.44925E+00	-6.09748E+00
6.33675E-01	4.56487E-01	4.44881E+00	-6.05449E+00
5.05714E-01	-3.16700E-01	4.44797E+00	-6.01142E+00
5.52261E-01	-1.35823E+00	4.44720E+00	-5.96805E+00
5.08700E-01	-1.97166E+00	4.44688E+00	-5.92464E+00
8.80180E-02	-1.75303E+00	4.44683E+00	-5.88174E+00
-7.13706E-01	-8.91048E-01	4.44662E+00	-5.83914E+00
-1.53496E+00	2.92038E-02	4.44635E+00	-5.79666E+00
-1.88615E+00	5.24008E-01	4.44612E+00	-5.75435E+00
-1.52387E+00	5.67188E-01	4.44571E+00	-5.71226E+00
-6.51881E-01	5.12019E-01	4.44510E+00	-5.67012E+00
2.22208E-01	6.85363E-01	4.44449E+00	-5.62767E+00
6.61719E-01	1.05044E+00	4.44444E+00	-5.58503E+00
6.04575E-01	1.24907E+00	4.44490E+00	-5.54292E+00
3.59295E-01	9.69805E-01	4.44537E+00	-5.50145E+00
3.13730E-01	2.80321E-01	4.44535E+00	-5.46038E+00
6.06452E-01	-4.00610E-01	4.44532E+00	-5.41903E+00
1.02577E+00	-6.72818E-01	4.44532E+00	-5.37852E+00
1.20186E+00	-5.18594E-01	4.44401E+00	-5.33781E+00
9.17615E-01	-3.12283E-01	4.44295E+00	-5.29572E+00
2.80519E-01	-4.56036E-01	4.44295E+00	-5.25374E+00
-3.73761E-01	-9.77751E-01	4.44343E+00	-5.21223E+00
-7.51340E-01	-1.47191E+00	4.44354E+00	-5.17190E+00
-8.15584E-01	-1.45011E+00	4.44256E+00	-5.13056E+00
-7.76288E-01	-7.84538E-01	4.44267E+00	-5.08891E+00
-8.71778E-01	1.65254E-01	4.44292E+00	-5.04747E+00
-1.13029E+00	8.60498E-01	4.44373E+00	-5.00644E+00
-1.31381E+00	1.03994E+00	4.44432E+00	-4.96617E+00
-1.09957E+00	8.98796E-01	4.44436E+00	-4.92606E+00
-3.64204E-01	8.29108E-01	4.44391E+00	-4.88593E+00
6.55462E-01	9.82729E-01	4.44323E+00	-4.84517E+00
1.46824E+00	1.09467E+00	4.44280E+00	-4.80431E+00
1.64661E+00	7.57109E-01	4.44226E+00	-4.76307E+00
1.13188E+00	-1.10243E-01	4.44248E+00	-4.72155E+00
2.94749E-01	-1.06689E+00	4.44294E+00	-4.68071E+00
-3.13862E-01	-1.46986E+00	4.44307E+00	-4.63984E+00
-3.53766E-01	-1.05040E+00	4.44347E+00	-4.59905E+00
5.84466E-02	-2.13920E-01	4.44358E+00	-4.55850E+00
4.41011E-01	2.58875E-01	4.44353E+00	-4.51776E+00
3.18555E-01	-1.08202E-01	4.44346E+00	-4.47682E+00
-4.03842E-01	-1.02094E+00	4.44354E+00	-4.43582E+00
-1.35213E+00	-1.60803E+00	4.44360E+00	-4.39473E+00
-1.95166E+00	-1.14807E+00	4.44376E+00	-4.35365E+00
-1.84362E+00	2.83907E-01	4.44390E+00	-4.31245E+00
-1.12508E+00	1.82160E+00	4.44417E+00	-4.27125E+00
-2.35351E-01	2.48084E+00	4.44444E+00	-4.23005E+00
3.97984E-01	1.93543E+00	4.44466E+00	-4.18895E+00
6.51570E-01	7.37988E-01	4.44463E+00	-4.14770E+00
7.05716E-01	-1.85993E-01	4.44456E+00	-4.10613E+00
7.90270E-01	-3.14300E-01	4.44464E+00	-4.06431E+00
9.32999E-01	9.97335E-02	4.44490E+00	-4.02242E+00
9.47422E-01	3.52191E-01	4.44520E+00	-3.98051E+00
6.56146E-01	-1.99611E-02	4.44553E+00	-3.93849E+00
1.15790E-01	-8.17066E-01	4.44586E+00	-3.89640E+00
-3.91647E-01	-1.38636E+00	4.44623E+00	-3.85426E+00
-6.04521E-01	-1.23823E+00	4.44641E+00	-3.81197E+00
