jMRUI Data Textfile
 
Filename: lactate.txt
 
PointsInDataset: 2048
DatasetsInFile: 1
SamplingInterval: 5.00000E-01
ZeroOrderPhase: 0E0
BeginTime: 0E0
TransmitterFrequency: 1.27740E+08
MagneticField: 0E0
TypeOfNucleus: 0E0
NameOfPatient: 
DateOfExperiment: 
Spectrometer: Vespa-Simulation
AdditionalInfo: see 'readme' file for Vespa-Simulation output synopsis
 
  
Signal and FFT 
sig(real)	sig(imag)	fft(real)	fft(imag)
Signal 1 out of 1 in file
2.77291E+00	2.09305E-02	1.61660E+00	-3.25604E+00
9.34888E-01	-2.35666E+00	1.60999E+00	-3.22942E+00
-1.68808E+00	-1.17594E+00	1.60407E+00	-3.20082E+00
-1.06932E+00	1.49444E+00	1.60073E+00	-3.17494E+00
1.63249E+00	1.34978E+00	1.59491E+00	-3.15103E+00
2.02961E+00	-1.37994E+00	1.58857E+00	-3.12447E+00
-5.63207E-01	-2.41344E+00	1.58531E+00	-3.09916E+00
-2.15895E+00	-1.98629E-01	1.58097E+00	-3.07590E+00
-4.31139E-01	1.74863E+00	1.57596E+00	-3.05239E+00
1.72175E+00	4.60653E-01	1.57138E+00	-3.02845E+00
8.47058E-01	-1.88662E+00	1.56798E+00	-3.00527E+00
-1.67094E+00	-1.52000E+00	1.56425E+00	-2.98330E+00
-1.90997E+00	1.00758E+00	1.56019E+00	-2.96148E+00
4.13654E-01	1.80468E+00	1.55619E+00	-2.93955E+00
1.61801E+00	-2.10897E-01	1.55306E+00	-2.91798E+00
-9.81871E-02	-1.72648E+00	1.54984E+00	-2.89745E+00
-1.92248E+00	-3.29018E-01	1.54632E+00	-2.87712E+00
-9.54423E-01	1.77347E+00	1.54288E+00	-2.85681E+00
1.28253E+00	1.33393E+00	1.53995E+00	-2.83679E+00
1.35197E+00	-8.58388E-01	1.53704E+00	-2.81749E+00
-7.01229E-01	-1.34226E+00	1.53386E+00	-2.79847E+00
-1.54789E+00	5.53152E-01	1.53067E+00	-2.77931E+00
1.40395E-01	1.77075E+00	1.52809E+00	-2.76029E+00
1.70172E+00	4.05077E-01	1.52572E+00	-2.74198E+00
7.56239E-01	-1.38294E+00	1.52323E+00	-2.72400E+00
-1.11733E+00	-8.63808E-01	1.52083E+00	-2.70622E+00
-9.78621E-01	1.01438E+00	1.51866E+00	-2.68880E+00
8.69315E-01	1.24092E+00	1.51640E+00	-2.67196E+00
1.47984E+00	-5.12304E-01	1.51381E+00	-2.65523E+00
-6.81889E-02	-1.48933E+00	1.51136E+00	-2.63836E+00
-1.32603E+00	-2.38814E-01	1.50923E+00	-2.62173E+00
-3.99674E-01	1.19685E+00	1.50722E+00	-2.60554E+00
1.14895E+00	5.87074E-01	1.50508E+00	-2.58953E+00
8.67704E-01	-1.03325E+00	1.50312E+00	-2.57363E+00
-7.57258E-01	-1.10802E+00	1.50132E+00	-2.55803E+00
-1.18313E+00	4.23755E-01	1.49954E+00	-2.54283E+00
1.72105E-01	1.14664E+00	1.49754E+00	-2.52775E+00
1.12433E+00	8.34554E-03	1.49572E+00	-2.51272E+00
2.22362E-01	-1.12516E+00	1.49404E+00	-2.49787E+00
-1.05255E+00	-4.88913E-01	1.49244E+00	-2.48335E+00
-7.15152E-01	8.66826E-01	1.49081E+00	-2.46898E+00
6.41305E-01	8.35722E-01	1.48929E+00	-2.45483E+00
8.90639E-01	-4.50003E-01	1.48775E+00	-2.44088E+00
-2.77229E-01	-9.42123E-01	1.48624E+00	-2.42711E+00
-9.79990E-01	7.26526E-02	1.48478E+00	-2.41349E+00
-1.56208E-01	9.52509E-01	1.48330E+00	-2.40013E+00
8.52297E-01	3.54832E-01	1.48171E+00	-2.38677E+00
4.97998E-01	-7.21922E-01	1.48043E+00	-2.37346E+00
-5.89271E-01	-6.07534E-01	1.47915E+00	-2.36054E+00
-7.00312E-01	4.42602E-01	1.47782E+00	-2.34773E+00
2.71249E-01	7.60432E-01	1.47648E+00	-2.33505E+00
7.70941E-01	-9.34797E-02	1.47525E+00	-2.32240E+00
6.81903E-02	-7.40786E-01	1.47412E+00	-2.31008E+00
-6.85402E-01	-2.12456E-01	1.47282E+00	-2.29792E+00
-3.43305E-01	6.03603E-01	1.47148E+00	-2.28561E+00
4.91823E-01	4.49010E-01	1.47053E+00	-2.27344E+00
5.16171E-01	-3.64736E-01	1.46955E+00	-2.26168E+00
-2.41223E-01	-5.51665E-01	1.46848E+00	-2.25000E+00
-5.69728E-01	1.20242E-01	1.46742E+00	-2.23841E+00
-8.35527E-03	5.65264E-01	1.46645E+00	-2.22697E+00
5.21968E-01	1.34382E-01	1.46538E+00	-2.21572E+00
2.31510E-01	-4.44854E-01	1.46432E+00	-2.20448E+00
-3.61633E-01	-2.92519E-01	1.46324E+00	-2.19329E+00
-3.37798E-01	2.86537E-01	1.46244E+00	-2.18212E+00
2.04085E-01	3.80384E-01	1.46165E+00	-2.17140E+00
4.02499E-01	-1.01036E-01	1.46063E+00	-2.16074E+00
3.43328E-03	-3.82910E-01	1.45962E+00	-2.15005E+00
-3.33152E-01	-7.89079E-02	1.45873E+00	-2.13939E+00
-1.24525E-01	2.84606E-01	1.45791E+00	-2.12893E+00
2.45406E-01	1.65700E-01	1.45701E+00	-2.11861E+00
2.11452E-01	-1.93945E-01	1.45607E+00	-2.10818E+00
-1.18749E-01	-2.38792E-01	1.45549E+00	-2.09780E+00
-2.28013E-01	4.24756E-02	1.45495E+00	-2.08794E+00
-6.91918E-03	1.93974E-01	1.45405E+00	-2.07818E+00
1.65631E-01	3.30784E-02	1.45309E+00	-2.06828E+00
6.03211E-02	-1.46171E-01	1.45234E+00	-2.05822E+00
-1.14220E-01	-9.35173E-02	1.45189E+00	-2.04855E+00
-1.10289E-01	6.20513E-02	1.45115E+00	-2.03910E+00
1.14904E-02	9.55153E-02	1.45037E+00	-2.02966E+00
6.43340E-02	1.50750E-02	1.44969E+00	-2.02010E+00
2.31574E-02	-4.03356E-02	1.44905E+00	-2.01085E+00
-2.40005E-02	-3.25706E-02	1.44839E+00	-2.00165E+00
-4.51622E-02	-1.93026E-03	1.44751E+00	-1.99254E+00
-4.13366E-02	4.25993E-02	1.44681E+00	-1.98314E+00
1.48833E-02	7.56520E-02	1.44634E+00	-1.97411E+00
8.83171E-02	2.45550E-02	1.44577E+00	-1.96519E+00
5.78152E-02	-8.45674E-02	1.44506E+00	-1.95631E+00
-7.87889E-02	-8.51106E-02	1.44447E+00	-1.94743E+00
-1.18387E-01	7.10554E-02	1.44395E+00	-1.93858E+00
4.77388E-02	1.58345E-01	1.44351E+00	-1.93000E+00
1.89778E-01	-3.02481E-03	1.44285E+00	-1.92145E+00
5.16202E-02	-2.00491E-01	1.44232E+00	-1.91279E+00
-1.94712E-01	-1.02576E-01	1.44193E+00	-1.90431E+00
-1.50060E-01	1.82418E-01	1.44155E+00	-1.89602E+00
1.62175E-01	2.01904E-01	1.44100E+00	-1.88789E+00
2.56038E-01	-1.23188E-01	1.44036E+00	-1.87964E+00
-6.25398E-02	-2.98426E-01	1.43992E+00	-1.87138E+00
-3.19244E-01	-8.51297E-03	1.43949E+00	-1.86343E+00
-7.85988E-02	3.22986E-01	1.43881E+00	-1.85548E+00
3.17369E-01	1.49274E-01	1.43819E+00	-1.84739E+00
2.27161E-01	-2.98035E-01	1.43771E+00	-1.83930E+00
-2.53159E-01	-3.06747E-01	1.43736E+00	-1.83145E+00
-3.71130E-01	1.82175E-01	1.43680E+00	-1.82373E+00
9.97500E-02	4.11492E-01	1.43617E+00	-1.81583E+00
4.36055E-01	-1.66999E-02	1.43582E+00	-1.80791E+00
7.36631E-02	-4.52632E-01	1.43550E+00	-1.80027E+00
-4.50393E-01	-1.80410E-01	1.43504E+00	-1.79266E+00
-2.92192E-01	4.11644E-01	1.43465E+00	-1.78493E+00
3.39238E-01	3.84121E-01	1.43454E+00	-1.77728E+00
4.48706E-01	-2.56209E-01	1.43458E+00	-1.77000E+00
-1.73164E-01	-5.03263E-01	1.43445E+00	-1.76325E+00
-5.57334E-01	7.23860E-02	1.43346E+00	-1.75660E+00
-6.11902E-02	5.87994E-01	1.43239E+00	-1.74906E+00
5.66887E-01	2.05985E-01	1.43184E+00	-1.74150E+00
3.23863E-01	-5.03502E-01	1.43132E+00	-1.73406E+00
-4.34991E-01	-4.11266E-01	1.43091E+00	-1.72652E+00
-5.01408E-01	3.69901E-01	1.43079E+00	-1.71894E+00
2.71927E-01	6.05571E-01	1.43116E+00	-1.71164E+00
6.81439E-01	-1.17815E-01	1.43153E+00	-1.70530E+00
5.43299E-02	-6.86410E-01	1.43089E+00	-1.69908E+00
-6.42172E-01	-1.88885E-01	1.43015E+00	-1.69226E+00
-2.91418E-01	6.05484E-01	1.42964E+00	-1.68541E+00
5.78655E-01	4.18239E-01	1.42910E+00	-1.67858E+00
5.80331E-01	-4.98334E-01	1.42859E+00	-1.67167E+00
-3.32997E-01	-7.07679E-01	1.42824E+00	-1.66471E+00
-7.41986E-01	1.45050E-01	1.42806E+00	-1.65795E+00
1.01602E-02	7.24921E-01	1.42773E+00	-1.65131E+00
7.37188E-01	9.42832E-02	1.42742E+00	-1.64457E+00
2.54324E-01	-7.68113E-01	1.42731E+00	-1.63788E+00
-7.19196E-01	-4.76085E-01	1.42722E+00	-1.63147E+00
-6.53399E-01	5.53380E-01	1.42698E+00	-1.62516E+00
3.65800E-01	7.13878E-01	1.42661E+00	-1.61884E+00
7.28489E-01	-2.52078E-01	1.42630E+00	-1.61239E+00
-1.62760E-01	-8.04251E-01	1.42610E+00	-1.60613E+00
-9.08605E-01	-2.30209E-02	1.42573E+00	-1.59993E+00
-2.99390E-01	9.01290E-01	1.42532E+00	-1.59362E+00
7.45239E-01	5.16884E-01	1.42507E+00	-1.58731E+00
5.93720E-01	-5.76786E-01	1.42485E+00	-1.58112E+00
-5.08392E-01	-6.40196E-01	1.42457E+00	-1.57507E+00
-7.89373E-01	4.52679E-01	1.42414E+00	-1.56898E+00
2.51441E-01	9.76409E-01	1.42377E+00	-1.56274E+00
1.01505E+00	6.83481E-02	1.42356E+00	-1.55656E+00
3.08442E-01	-8.76823E-01	1.42336E+00	-1.55052E+00
-7.46670E-01	-3.85727E-01	1.42307E+00	-1.54453E+00
-4.59866E-01	7.47319E-01	1.42282E+00	-1.53844E+00
7.42434E-01	6.86337E-01	1.42276E+00	-1.53243E+00
9.57075E-01	-5.37199E-01	1.42267E+00	-1.52674E+00
-1.90296E-01	-1.03898E+00	1.42225E+00	-1.52103E+00
-9.23086E-01	-4.87120E-02	1.42185E+00	-1.51506E+00
-1.06394E-01	8.48254E-01	1.42172E+00	-1.50908E+00
9.38243E-01	1.99970E-01	1.42169E+00	-1.50341E+00
5.01008E-01	-9.97485E-01	1.42137E+00	-1.49782E+00
-7.99087E-01	-8.47459E-01	1.42103E+00	-1.49198E+00
-9.62450E-01	4.44613E-01	1.42107E+00	-1.48619E+00
2.34003E-01	8.69059E-01	1.42103E+00	-1.48094E+00
8.62524E-01	-2.17922E-01	1.42036E+00	-1.47567E+00
-1.15657E-01	-1.05582E+00	1.41962E+00	-1.46968E+00
-1.18640E+00	-2.50575E-01	1.41966E+00	-1.46346E+00
-6.56094E-01	1.00336E+00	1.42012E+00	-1.45805E+00
6.61853E-01	7.87224E-01	1.41985E+00	-1.45309E+00
7.12014E-01	-5.07580E-01	1.41942E+00	-1.44753E+00
-5.54244E-01	-7.81168E-01	1.41922E+00	-1.44216E+00
-1.08350E+00	4.55162E-01	1.41887E+00	-1.43674E+00
3.83563E-02	1.28488E+00	1.41857E+00	-1.43124E+00
1.12196E+00	4.02304E-01	1.41832E+00	-1.42568E+00
5.27182E-01	-8.12860E-01	1.41837E+00	-1.42009E+00
-7.40317E-01	-4.61963E-01	1.41854E+00	-1.41500E+00
-6.07829E-01	8.67240E-01	1.41823E+00	-1.40994E+00
7.82481E-01	1.01560E+00	1.41812E+00	-1.40484E+00
1.27898E+00	-3.33600E-01	1.41756E+00	-1.39988E+00
1.13318E-01	-1.13643E+00	1.41694E+00	-1.39434E+00
-8.75756E-01	-2.06775E-01	1.41691E+00	-1.38865E+00
-1.40414E-01	9.05050E-01	1.41717E+00	-1.38342E+00
1.12366E+00	3.57727E-01	1.41718E+00	-1.37855E+00
8.58009E-01	-1.06190E+00	1.41696E+00	-1.37365E+00
-6.01230E-01	-1.16672E+00	1.41662E+00	-1.36867E+00
-1.04008E+00	1.79035E-01	1.41631E+00	-1.36354E+00
1.42362E-01	8.39043E-01	1.41608E+00	-1.35842E+00
9.82505E-01	-2.22001E-01	1.41585E+00	-1.35329E+00
5.56915E-02	-1.29640E+00	1.41578E+00	-1.34808E+00
-1.26251E+00	-6.27288E-01	1.41586E+00	-1.34311E+00
-9.58256E-01	8.09921E-01	1.41583E+00	-1.33830E+00
4.42413E-01	8.38858E-01	1.41568E+00	-1.33360E+00
7.02879E-01	-4.85140E-01	1.41533E+00	-1.32881E+00
-5.89601E-01	-9.63784E-01	1.41502E+00	-1.32387E+00
-1.36772E+00	2.66591E-01	1.41479E+00	-1.31893E+00
-3.48806E-01	1.36170E+00	1.41455E+00	-1.31393E+00
9.34861E-01	6.74428E-01	1.41454E+00	-1.30889E+00
5.50584E-01	-6.47969E-01	1.41465E+00	-1.30410E+00
-7.87303E-01	-4.79099E-01	1.41463E+00	-1.29950E+00
-8.51217E-01	9.25716E-01	1.41445E+00	-1.29492E+00
