jMRUI Data Textfile
 
Filename: mI.txt
 
PointsInDataset: 2048
DatasetsInFile: 1
SamplingInterval: 5.00000E-01
ZeroOrderPhase: 0E0
BeginTime: 0E0
TransmitterFrequency: 1.27740E+08
MagneticField: 0E0
TypeOfNucleus: 0E0
NameOfPatient: 
DateOfExperiment: 
Spectrometer: Vespa-Simulation
AdditionalInfo: see 'readme' file for Vespa-Simulation output synopsis
 
  
Signal and FFT 
sig(real)	sig(imag)	fft(real)	fft(imag)
Signal 1 out of 1 in file
5.39182E+00	-1.28368E-01	2.59495E+00	-1.29447E+01
4.78192E+00	-2.38059E+00	2.59373E+00	-1.28393E+01
3.25653E+00	-4.11068E+00	2.59260E+00	-1.27356E+01
1.16185E+00	-4.96989E+00	2.59155E+00	-1.26337E+01
-1.03978E+00	-4.81344E+00	2.59054E+00	-1.25336E+01
-2.88094E+00	-3.72749E+00	2.58949E+00	-1.24350E+01
-3.99743E+00	-1.99959E+00	2.58857E+00	-1.23379E+01
-4.20694E+00	-4.23000E-02	2.58778E+00	-1.22425E+01
-3.54032E+00	1.70895E+00	2.58700E+00	-1.21486E+01
-2.22036E+00	2.89717E+00	2.58613E+00	-1.20562E+01
-5.96689E-01	3.31968E+00	2.58543E+00	-1.19651E+01
9.44038E-01	2.96183E+00	2.58485E+00	-1.18755E+01
2.06918E+00	1.98419E+00	2.58417E+00	-1.17874E+01
2.57029E+00	6.70089E-01	2.58349E+00	-1.17004E+01
2.39794E+00	-6.49846E-01	2.58299E+00	-1.16147E+01
1.65662E+00	-1.67607E+00	2.58254E+00	-1.15305E+01
5.65604E-01	-2.20282E+00	2.58195E+00	-1.14474E+01
-6.00977E-01	-2.15261E+00	2.58149E+00	-1.13654E+01
-1.57864E+00	-1.57861E+00	2.58114E+00	-1.12848E+01
-2.16659E+00	-6.38805E-01	2.58069E+00	-1.12052E+01
-2.26119E+00	4.47890E-01	2.58032E+00	-1.11267E+01
-1.86526E+00	1.45164E+00	2.58001E+00	-1.10494E+01
-1.07559E+00	2.17644E+00	2.57971E+00	-1.09731E+01
-5.50101E-02	2.49209E+00	2.57946E+00	-1.08979E+01
1.00285E+00	2.35000E+00	2.57925E+00	-1.08238E+01
1.90872E+00	1.78350E+00	2.57901E+00	-1.07506E+01
2.50756E+00	8.95673E-01	2.57881E+00	-1.06784E+01
2.70013E+00	-1.61245E-01	2.57866E+00	-1.06073E+01
2.45525E+00	-1.21119E+00	2.57848E+00	-1.05371E+01
1.81255E+00	-2.08129E+00	2.57828E+00	-1.04677E+01
8.75979E-01	-2.62801E+00	2.57810E+00	-1.03993E+01
-2.01547E-01	-2.75979E+00	2.57801E+00	-1.03318E+01
-1.24150E+00	-2.45323E+00	2.57780E+00	-1.02652E+01
-2.06874E+00	-1.75967E+00	2.57756E+00	-1.01993E+01
-2.54260E+00	-7.99329E-01	2.57746E+00	-1.01342E+01
-2.58404E+00	2.57388E-01	2.57739E+00	-1.00699E+01
-2.19358E+00	1.22035E+00	2.57732E+00	-1.00064E+01
-1.45413E+00	1.91628E+00	2.57729E+00	-9.94373E+00
-5.17056E-01	2.22443E+00	2.57732E+00	-9.88178E+00
4.27857E-01	2.10331E+00	2.57742E+00	-9.82065E+00
1.19215E+00	1.60089E+00	2.57750E+00	-9.76033E+00
1.63018E+00	8.45032E-01	2.57754E+00	-9.70077E+00
1.67166E+00	1.52074E-02	2.57750E+00	-9.64188E+00
1.33755E+00	-6.98725E-01	2.57750E+00	-9.58364E+00
7.34375E-01	-1.14056E+00	2.57749E+00	-9.52608E+00
2.78549E-02	-1.22431E+00	2.57749E+00	-9.46917E+00
-5.97661E-01	-9.53511E-01	2.57748E+00	-9.41287E+00
-9.84371E-01	-4.18722E-01	2.57755E+00	-9.35719E+00
-1.03904E+00	2.26520E-01	2.57766E+00	-9.30211E+00
-7.54608E-01	8.04826E-01	2.57786E+00	-9.24774E+00
-2.10065E-01	1.15947E+00	2.57801E+00	-9.19405E+00
4.50977E-01	1.19263E+00	2.57812E+00	-9.14096E+00
1.05727E+00	8.88283E-01	2.57823E+00	-9.08843E+00
1.45245E+00	3.14173E-01	2.57834E+00	-9.03648E+00
1.53279E+00	-3.96798E-01	2.57842E+00	-8.98508E+00
1.27055E+00	-1.08020E+00	2.57852E+00	-8.93419E+00
7.18135E-01	-1.58013E+00	2.57868E+00	-8.88385E+00
-6.87956E-03	-1.78513E+00	2.57887E+00	-8.83407E+00
-7.51567E-01	-1.65200E+00	2.57904E+00	-8.78485E+00
-1.36374E+00	-1.21219E+00	2.57923E+00	-8.73615E+00
-1.72558E+00	-5.60862E-01	2.57941E+00	-8.68800E+00
-1.77727E+00	1.67923E-01	2.57955E+00	-8.64034E+00
-1.52568E+00	8.32453E-01	2.57965E+00	-8.59314E+00
-1.03781E+00	1.31399E+00	2.57981E+00	-8.54635E+00
-4.21807E-01	1.53935E+00	2.58003E+00	-8.50009E+00
1.98916E-01	1.49178E+00	2.58023E+00	-8.45433E+00
7.12290E-01	1.20878E+00	2.58044E+00	-8.40899E+00
1.03856E+00	7.68979E-01	2.58070E+00	-8.36416E+00
1.14273E+00	2.72179E-01	2.58091E+00	-8.31981E+00
1.03640E+00	-1.82567E-01	2.58111E+00	-8.27589E+00
7.70312E-01	-5.16263E-01	2.58127E+00	-8.23238E+00
4.20139E-01	-6.82901E-01	2.58145E+00	-8.18925E+00
6.91800E-02	-6.74904E-01	2.58170E+00	-8.14653E+00
-2.08609E-01	-5.20647E-01	2.58199E+00	-8.10428E+00
-3.61986E-01	-2.75544E-01	2.58223E+00	-8.06250E+00
-3.70607E-01	-9.01216E-03	2.58244E+00	-8.02107E+00
-2.46854E-01	2.10170E-01	2.58272E+00	-7.98007E+00
-3.15651E-02	3.27529E-01	2.58286E+00	-7.93956E+00
2.15257E-01	3.13256E-01	2.58290E+00	-7.89923E+00
4.27074E-01	1.67776E-01	2.58313E+00	-7.85923E+00
5.44556E-01	-7.84722E-02	2.58332E+00	-7.81967E+00
5.28000E-01	-3.71115E-01	2.58352E+00	-7.78035E+00
3.66116E-01	-6.42587E-01	2.58393E+00	-7.74145E+00
7.94519E-02	-8.25964E-01	2.58429E+00	-7.70309E+00
-2.82664E-01	-8.69150E-01	2.58453E+00	-7.66508E+00
-6.51029E-01	-7.46577E-01	2.58477E+00	-7.62734E+00
-9.50231E-01	-4.66002E-01	2.58504E+00	-7.58998E+00
-1.11417E+00	-6.85975E-02	2.58527E+00	-7.55300E+00
-1.10036E+00	3.78126E-01	2.58538E+00	-7.51630E+00
-8.99821E-01	7.93025E-01	2.58552E+00	-7.47977E+00
-5.40269E-01	1.09768E+00	2.58585E+00	-7.44357E+00
-8.16930E-02	1.23260E+00	2.58613E+00	-7.40783E+00
3.95233E-01	1.16995E+00	2.58636E+00	-7.37233E+00
8.05044E-01	9.19725E-01	2.58663E+00	-7.33715E+00
1.07494E+00	5.28270E-01	2.58692E+00	-7.30223E+00
1.15964E+00	6.88199E-02	2.58730E+00	-7.26767E+00
1.05044E+00	-3.73338E-01	2.58764E+00	-7.23354E+00
7.76582E-01	-7.18458E-01	2.58785E+00	-7.19971E+00
3.98742E-01	-9.08532E-01	2.58800E+00	-7.16607E+00
-4.30106E-03	-9.18786E-01	2.58817E+00	-7.13270E+00
-3.52312E-01	-7.61859E-01	2.58832E+00	-7.09953E+00
-5.80506E-01	-4.84132E-01	2.58851E+00	-7.06661E+00
-6.52746E-01	-1.54866E-01	2.58875E+00	-7.03391E+00
-5.68395E-01	1.49405E-01	2.58906E+00	-7.00149E+00
-3.61329E-01	3.61591E-01	2.58944E+00	-6.96937E+00
-9.15864E-02	4.38583E-01	2.58985E+00	-6.93762E+00
1.68673E-01	3.70281E-01	2.59020E+00	-6.90619E+00
3.51587E-01	1.81236E-01	2.59047E+00	-6.87505E+00
4.09048E-01	-7.53285E-02	2.59069E+00	-6.84411E+00
3.23655E-01	-3.29889E-01	2.59089E+00	-6.81340E+00
1.12794E-01	-5.12702E-01	2.59108E+00	-6.78288E+00
-1.75049E-01	-5.69925E-01	2.59128E+00	-6.75258E+00
-4.71063E-01	-4.76412E-01	2.59152E+00	-6.72248E+00
-7.01637E-01	-2.42146E-01	2.59180E+00	-6.69266E+00
-8.05256E-01	8.92672E-02	2.59204E+00	-6.66309E+00
-7.46874E-01	4.49615E-01	2.59228E+00	-6.63373E+00
-5.26668E-01	7.60982E-01	2.59251E+00	-6.60459E+00
-1.80822E-01	9.53135E-01	2.59270E+00	-6.57561E+00
2.25649E-01	9.79309E-01	2.59299E+00	-6.54676E+00
6.12842E-01	8.27096E-01	2.59343E+00	-6.51817E+00
9.03317E-01	5.21627E-01	2.59393E+00	-6.48992E+00
1.03908E+00	1.20252E-01	2.59443E+00	-6.46202E+00
9.94032E-01	-2.99799E-01	2.59484E+00	-6.43445E+00
7.79399E-01	-6.58294E-01	2.59508E+00	-6.40716E+00
4.40677E-01	-8.89222E-01	2.59517E+00	-6.37998E+00
4.69431E-02	-9.54557E-01	2.59525E+00	-6.35296E+00
-3.24532E-01	-8.51267E-01	2.59505E+00	-6.32614E+00
-6.05095E-01	-6.10480E-01	2.59473E+00	-6.29893E+00
-7.48746E-01	-2.89070E-01	2.59502E+00	-6.27161E+00
-7.40428E-01	4.38786E-02	2.59578E+00	-6.24483E+00
-5.97023E-01	3.22588E-01	2.59640E+00	-6.21875E+00
-3.61312E-01	4.97856E-01	2.59676E+00	-6.19265E+00
-9.09173E-02	5.46030E-01	2.59744E+00	-6.16677E+00
1.54931E-01	4.71521E-01	2.59812E+00	-6.14145E+00
3.27613E-01	3.03222E-01	2.59848E+00	-6.11655E+00
3.97810E-01	8.62935E-02	2.59844E+00	-6.09176E+00
3.59303E-01	-1.28324E-01	2.59815E+00	-6.06679E+00
2.27866E-01	-2.94174E-01	2.59804E+00	-6.04159E+00
3.61976E-02	-3.77434E-01	2.59827E+00	-6.01659E+00
-1.73250E-01	-3.61643E-01	2.59845E+00	-5.99192E+00
-3.56139E-01	-2.49210E-01	2.59861E+00	-5.96724E+00
-4.73387E-01	-5.99455E-02	2.59900E+00	-5.94266E+00
-4.96937E-01	1.72474E-01	2.59961E+00	-5.91840E+00
-4.13935E-01	4.05433E-01	2.60026E+00	-5.89458E+00
-2.29270E-01	5.93283E-01	2.60076E+00	-5.87115E+00
3.38550E-02	6.94077E-01	2.60097E+00	-5.84794E+00
3.35329E-01	6.76579E-01	2.60095E+00	-5.82468E+00
6.22596E-01	5.27239E-01	2.60103E+00	-5.80134E+00
8.38101E-01	2.55572E-01	2.60124E+00	-5.77819E+00
9.29492E-01	-1.03554E-01	2.60140E+00	-5.75521E+00
8.61166E-01	-4.92346E-01	2.60158E+00	-5.73228E+00
6.24843E-01	-8.38083E-01	2.60189E+00	-5.70948E+00
2.45974E-01	-1.06645E+00	2.60227E+00	-5.68695E+00
-2.16107E-01	-1.11754E+00	2.60260E+00	-5.66464E+00
-6.76490E-01	-9.61860E-01	2.60287E+00	-5.64250E+00
-1.04050E+00	-6.11407E-01	2.60308E+00	-5.62047E+00
-1.22441E+00	-1.22343E-01	2.60329E+00	-5.59855E+00
-1.17634E+00	4.12893E-01	2.60351E+00	-5.57672E+00
-8.92008E-01	8.83509E-01	2.60376E+00	-5.55503E+00
-4.20313E-01	1.18490E+00	2.60405E+00	-5.53346E+00
1.43995E-01	1.24432E+00	2.60438E+00	-5.51211E+00
6.79321E-01	1.04052E+00	2.60467E+00	-5.49091E+00
1.06505E+00	6.12424E-01	2.60493E+00	-5.46987E+00
1.21078E+00	5.30504E-02	2.60516E+00	-5.44894E+00
1.07985E+00	-5.10566E-01	2.60538E+00	-5.42812E+00
7.00380E-01	-9.47055E-01	2.60561E+00	-5.40741E+00
1.60606E-01	-1.15277E+00	2.60583E+00	-5.38684E+00
-4.11495E-01	-1.07803E+00	2.60603E+00	-5.36633E+00
-8.78590E-01	-7.40280E-01	2.60633E+00	-5.34594E+00
-1.12791E+00	-2.20775E-01	2.60667E+00	-5.32575E+00
-1.09915E+00	3.54971E-01	2.60694E+00	-5.30578E+00
-7.99349E-01	8.47989E-01	2.60711E+00	-5.28584E+00
-3.00890E-01	1.13999E+00	2.60735E+00	-5.26596E+00
2.76809E-01	1.16205E+00	2.60768E+00	-5.24624E+00
7.97347E-01	9.10498E-01	2.60792E+00	-5.22676E+00
1.14029E+00	4.46299E-01	2.60806E+00	-5.20729E+00
1.22977E+00	-1.21506E-01	2.60827E+00	-5.18784E+00
1.05077E+00	-6.63507E-01	2.60860E+00	-5.16855E+00
6.49791E-01	-1.06126E+00	2.60891E+00	-5.14949E+00
1.20747E-01	-1.23420E+00	2.60910E+00	-5.13054E+00
-4.19657E-01	-1.15565E+00	2.60929E+00	-5.11166E+00
-8.59924E-01	-8.54885E-01	2.60942E+00	-5.09282E+00
-1.11829E+00	-4.05666E-01	2.60969E+00	-5.07400E+00
-1.15737E+00	9.39937E-02	2.61004E+00	-5.05541E+00
-9.87449E-01	5.45557E-01	2.61030E+00	-5.03700E+00
-6.58375E-01	8.70555E-01	2.61052E+00	-5.01863E+00
-2.43987E-01	1.02371E+00	2.61081E+00	-5.00034E+00
1.76031E-01	9.96701E-01	2.61113E+00	-4.98225E+00
5.32021E-01	8.13464E-01	2.61135E+00	-4.96429E+00
7.75000E-01	5.19901E-01	2.61151E+00	-4.94639E+00
8.80329E-01	1.72050E-01	2.61167E+00	-4.92851E+00
