jMRUI Data Textfile
 
Filename: NAAG.txt
 
PointsInDataset: 2048
DatasetsInFile: 1
SamplingInterval: 5.00000E-01
ZeroOrderPhase: 0E0
BeginTime: 0E0
TransmitterFrequency: 1.27740E+08
MagneticField: 0E0
TypeOfNucleus: 0E0
NameOfPatient: 
DateOfExperiment: 
Spectrometer: Vespa-Simulation
AdditionalInfo: see 'readme' file for Vespa-Simulation output synopsis
 
  
Signal and FFT 
sig(real)	sig(imag)	fft(real)	fft(imag)
Signal 1 out of 1 in file
1.00000E+00	2.77556E-17	5.04497E-01	-8.46809E-01
4.80768E-01	-8.71482E-01	5.04538E-01	-8.43842E-01
-5.28344E-01	-8.37962E-01	5.04570E-01	-8.40964E-01
-9.84280E-01	5.75768E-02	5.04492E-01	-8.38071E-01
-4.23032E-01	8.85464E-01	5.04476E-01	-8.35142E-01
5.68285E-01	7.94369E-01	5.04443E-01	-8.32248E-01
9.65491E-01	-1.13343E-01	5.04440E-01	-8.29385E-01
3.65400E-01	-8.95901E-01	5.04354E-01	-8.26511E-01
-6.05090E-01	-7.49160E-01	5.04374E-01	-8.23604E-01
-9.43788E-01	1.67150E-01	5.04365E-01	-8.20764E-01
-3.08075E-01	9.02855E-01	5.04423E-01	-8.17972E-01
6.38710E-01	7.02545E-01	5.04324E-01	-8.15193E-01
9.19327E-01	-2.18864E-01	5.04406E-01	-8.12409E-01
2.51246E-01	-9.06400E-01	5.04323E-01	-8.09657E-01
-6.69121E-01	-6.54725E-01	5.04263E-01	-8.07021E-01
-8.92274E-01	2.68354E-01	5.04144E-01	-8.04175E-01
-1.95107E-01	9.06618E-01	5.04091E-01	-8.01419E-01
6.96301E-01	6.05905E-01	5.04087E-01	-7.98611E-01
8.62797E-01	-3.15508E-01	5.04082E-01	-7.95921E-01
1.39845E-01	-9.03598E-01	5.04045E-01	-7.93197E-01
-7.20237E-01	-5.56293E-01	5.04009E-01	-7.90495E-01
-8.31067E-01	3.60227E-01	5.04002E-01	-7.87770E-01
-8.56185E-02	8.97446E-01	5.04006E-01	-7.85110E-01
7.40946E-01	5.06078E-01	5.03989E-01	-7.82441E-01
7.97261E-01	-4.02416E-01	5.03990E-01	-7.79785E-01
3.25988E-02	-8.88267E-01	5.04024E-01	-7.77147E-01
-7.58437E-01	-4.55459E-01	5.04054E-01	-7.74596E-01
-7.61557E-01	4.41995E-01	5.04009E-01	-7.72073E-01
1.90590E-02	8.76180E-01	5.03891E-01	-7.69526E-01
7.72736E-01	4.04635E-01	5.03759E-01	-7.66837E-01
7.24139E-01	-4.78890E-01	5.03840E-01	-7.64140E-01
-6.92021E-02	-8.61310E-01	5.03923E-01	-7.61616E-01
-7.83889E-01	-3.53775E-01	5.03936E-01	-7.59123E-01
-6.85181E-01	5.13057E-01	5.03938E-01	-7.56625E-01
1.17714E-01	8.43784E-01	5.03936E-01	-7.54164E-01
7.91934E-01	3.03084E-01	5.03886E-01	-7.51717E-01
6.44873E-01	-5.44438E-01	5.03812E-01	-7.49244E-01
-1.64441E-01	-8.23743E-01	5.03752E-01	-7.46747E-01
-7.96933E-01	-2.52728E-01	5.03714E-01	-7.44267E-01
-6.03383E-01	5.73015E-01	5.03663E-01	-7.41794E-01
2.09280E-01	8.01326E-01	5.03621E-01	-7.39310E-01
7.98959E-01	2.02862E-01	5.03604E-01	-7.36824E-01
5.60909E-01	-5.98745E-01	5.03618E-01	-7.34375E-01
-2.52135E-01	-7.76677E-01	5.03624E-01	-7.31953E-01
-7.98078E-01	-1.53676E-01	5.03621E-01	-7.29589E-01
-5.17611E-01	6.21633E-01	5.03518E-01	-7.27173E-01
2.92886E-01	7.49952E-01	5.03542E-01	-7.24668E-01
7.94380E-01	1.05314E-01	5.03657E-01	-7.22338E-01
4.73686E-01	-6.41660E-01	5.03582E-01	-7.20041E-01
-3.31457E-01	-7.21301E-01	5.03576E-01	-7.17628E-01
-7.87956E-01	-5.79128E-02	5.03626E-01	-7.15299E-01
-4.29299E-01	6.58844E-01	5.03641E-01	-7.13048E-01
3.67784E-01	6.90874E-01	5.03546E-01	-7.10775E-01
7.78903E-01	1.16390E-02	5.03501E-01	-7.08413E-01
3.84609E-01	-6.73208E-01	5.03513E-01	-7.06102E-01
-4.01776E-01	-6.58840E-01	5.03507E-01	-7.03853E-01
-7.67329E-01	3.33983E-02	5.03415E-01	-7.01586E-01
-3.39806E-01	6.84768E-01	5.03382E-01	-6.99227E-01
4.33391E-01	6.25352E-01	5.03438E-01	-6.96934E-01
7.53343E-01	-7.70492E-02	5.03472E-01	-6.94743E-01
2.95041E-01	-6.93566E-01	5.03382E-01	-6.92559E-01
-4.62589E-01	-5.90564E-01	5.03311E-01	-6.90236E-01
-7.37065E-01	1.19209E-01	5.03365E-01	-6.87973E-01
-2.50463E-01	6.99653E-01	5.03387E-01	-6.85760E-01
4.89325E-01	5.54641E-01	5.03389E-01	-6.83598E-01
7.18616E-01	-1.59768E-01	5.03374E-01	-6.81393E-01
2.06246E-01	-7.03074E-01	5.03380E-01	-6.79234E-01
-5.13565E-01	-5.17751E-01	5.03372E-01	-6.77081E-01
-6.98115E-01	1.98650E-01	5.03312E-01	-6.74964E-01
-1.62527E-01	7.03896E-01	5.03250E-01	-6.72748E-01
5.35299E-01	4.80046E-01	5.03271E-01	-6.70574E-01
6.75704E-01	-2.35719E-01	5.03293E-01	-6.68445E-01
1.19448E-01	-7.02187E-01	5.03253E-01	-6.66383E-01
-5.54521E-01	-4.41682E-01	5.03170E-01	-6.64216E-01
-6.51511E-01	2.70914E-01	5.03173E-01	-6.62069E-01
-7.71230E-02	6.98028E-01	5.03173E-01	-6.59944E-01
5.71232E-01	4.02814E-01	5.03150E-01	-6.57875E-01
6.25673E-01	-3.04164E-01	5.03099E-01	-6.55713E-01
3.57244E-02	-6.91495E-01	5.03156E-01	-6.53589E-01
-5.85454E-01	-3.63577E-01	5.03242E-01	-6.51537E-01
-5.98326E-01	3.35403E-01	5.03204E-01	-6.49634E-01
4.64731E-03	6.82682E-01	5.03019E-01	-6.47503E-01
5.97182E-01	3.24156E-01	5.03094E-01	-6.45311E-01
5.69611E-01	-3.64577E-01	5.03229E-01	-6.43300E-01
-4.38770E-02	-6.71682E-01	5.03232E-01	-6.41473E-01
-6.06456E-01	-2.84680E-01	5.02991E-01	-6.39428E-01
-5.39655E-01	3.91655E-01	5.03037E-01	-6.37242E-01
8.18567E-02	6.58597E-01	5.03169E-01	-6.35249E-01
6.13312E-01	2.45291E-01	5.03181E-01	-6.33496E-01
5.08624E-01	-4.16567E-01	5.02809E-01	-6.31459E-01
-1.18506E-01	-6.43528E-01	5.02911E-01	-6.29143E-01
-6.17793E-01	-2.06126E-01	5.03195E-01	-6.27194E-01
-4.76646E-01	4.39301E-01	5.03227E-01	-6.25744E-01
1.53692E-01	6.26589E-01	5.02353E-01	-6.23516E-01
6.19948E-01	1.67319E-01	5.03167E-01	-6.20785E-01
4.43862E-01	-4.59836E-01	5.03537E-01	-6.19859E-01
-1.87349E-01	-6.07891E-01	5.02409E-01	-6.17934E-01
-6.19839E-01	-1.28978E-01	5.02892E-01	-6.15112E-01
-4.10412E-01	4.78161E-01	5.03271E-01	-6.13730E-01
2.19401E-01	5.87549E-01	5.02989E-01	-6.11999E-01
6.17521E-01	9.12655E-02	5.02736E-01	-6.09934E-01
3.76416E-01	-4.94284E-01	5.02962E-01	-6.07795E-01
-2.49778E-01	-5.65682E-01	5.03074E-01	-6.06162E-01
-6.13068E-01	-5.42795E-02	5.02901E-01	-6.04356E-01
-3.42043E-01	5.08185E-01	5.02746E-01	-6.02384E-01
2.78418E-01	5.42409E-01	5.02855E-01	-6.00345E-01
6.06555E-01	1.81313E-02	5.02941E-01	-5.98629E-01
3.07409E-01	-5.19888E-01	5.02819E-01	-5.96829E-01
-3.05285E-01	-5.17844E-01	5.02690E-01	-5.94915E-01
-5.98064E-01	1.70738E-02	5.02732E-01	-5.92905E-01
-2.72646E-01	5.29413E-01	5.02842E-01	-5.91112E-01
3.30299E-01	4.92128E-01	5.02824E-01	-5.89359E-01
5.87678E-01	-5.12550E-02	5.02689E-01	-5.87536E-01
2.37881E-01	-5.36787E-01	5.02696E-01	-5.85551E-01
-3.53439E-01	-4.65376E-01	5.02821E-01	-5.83749E-01
-5.75489E-01	8.42825E-02	5.02836E-01	-5.81997E-01
-2.03238E-01	5.42044E-01	5.02824E-01	-5.80229E-01
3.74675E-01	4.37713E-01	5.02844E-01	-5.78428E-01
5.61590E-01	-1.16089E-01	5.02875E-01	-5.76750E-01
1.68820E-01	-5.45229E-01	5.02755E-01	-5.75055E-01
-3.93985E-01	-4.09262E-01	5.02617E-01	-5.73253E-01
-5.46078E-01	1.46595E-01	5.02555E-01	-5.71359E-01
-1.34777E-01	5.46377E-01	5.02602E-01	-5.69538E-01
4.11365E-01	3.80133E-01	5.02601E-01	-5.67764E-01
5.29054E-01	-1.75729E-01	5.02611E-01	-5.65974E-01
1.01203E-01	-5.45547E-01	5.02659E-01	-5.64191E-01
-4.26783E-01	-3.50475E-01	5.02732E-01	-5.62505E-01
-5.10614E-01	2.03441E-01	5.02666E-01	-5.60848E-01
-6.81872E-02	5.42800E-01	5.02633E-01	-5.59060E-01
4.40241E-01	3.20409E-01	5.02654E-01	-5.57319E-01
4.90882E-01	-2.29624E-01	5.02707E-01	-5.55629E-01
3.58826E-02	-5.38192E-01	5.02678E-01	-5.53977E-01
-4.51776E-01	-2.90013E-01	5.02644E-01	-5.52283E-01
-4.69938E-01	2.54290E-01	5.02611E-01	-5.50570E-01
-4.31757E-03	5.31797E-01	5.02633E-01	-5.48879E-01
4.61378E-01	2.59430E-01	5.02604E-01	-5.47234E-01
4.47902E-01	-2.77361E-01	5.02557E-01	-5.45558E-01
-2.63500E-02	-5.23687E-01	5.02505E-01	-5.43858E-01
-4.69054E-01	-2.28804E-01	5.02500E-01	-5.42146E-01
-4.24903E-01	2.98774E-01	5.02496E-01	-5.40466E-01
5.61011E-02	5.13936E-01	5.02506E-01	-5.38787E-01
4.74859E-01	1.98189E-01	5.02511E-01	-5.37143E-01
4.01012E-01	-3.18552E-01	5.02490E-01	-5.35485E-01
-8.48228E-02	-5.02624E-01	5.02517E-01	-5.33817E-01
-4.78799E-01	-1.67750E-01	5.02530E-01	-5.32230E-01
-3.76380E-01	3.36619E-01	5.02447E-01	-5.30596E-01
1.12411E-01	4.89843E-01	5.02504E-01	-5.28878E-01
4.80934E-01	1.37533E-01	5.02556E-01	-5.27344E-01
3.51072E-01	-3.53007E-01	5.02505E-01	-5.25768E-01
-1.38859E-01	-4.75667E-01	5.02451E-01	-5.24150E-01
-4.81295E-01	-1.07668E-01	5.02466E-01	-5.22503E-01
-3.25242E-01	3.67659E-01	5.02476E-01	-5.20957E-01
1.64047E-01	4.60200E-01	5.02419E-01	-5.19380E-01
4.79925E-01	7.82818E-02	5.02357E-01	-5.17775E-01
2.98951E-01	-3.80614E-01	5.02339E-01	-5.16121E-01
-1.87976E-01	-4.43516E-01	5.02356E-01	-5.14524E-01
-4.76889E-01	-4.94065E-02	5.02365E-01	-5.12920E-01
-2.72327E-01	3.91850E-01	5.02391E-01	-5.11362E-01
2.10568E-01	4.25715E-01	5.02384E-01	-5.09809E-01
4.72236E-01	2.11896E-02	5.02357E-01	-5.08258E-01
2.45499E-01	-4.01361E-01	5.02347E-01	-5.06671E-01
-2.31754E-01	-4.06908E-01	5.02321E-01	-5.05093E-01
-4.66033E-01	6.34526E-03	5.02400E-01	-5.03458E-01
-2.18520E-01	4.09192E-01	5.02526E-01	-5.02020E-01
2.51549E-01	3.87161E-01	5.02462E-01	-5.00620E-01
4.58340E-01	-3.30899E-02	5.02344E-01	-4.99099E-01
1.91541E-01	-4.15334E-01	5.02305E-01	-4.97483E-01
-2.69872E-01	-3.66601E-01	5.02366E-01	-4.95962E-01
-4.49232E-01	5.89428E-02	5.02338E-01	-4.94493E-01
-1.64605E-01	4.19837E-01	5.02286E-01	-4.92982E-01
2.86747E-01	3.45292E-01	5.02261E-01	-4.91417E-01
4.38774E-01	-8.38927E-02	5.02312E-01	-4.89930E-01
1.37834E-01	-4.22718E-01	5.02252E-01	-4.88480E-01
-3.02108E-01	-3.23366E-01	5.02176E-01	-4.86961E-01
-4.27050E-01	1.07821E-01	5.02135E-01	-4.85349E-01
-1.11344E-01	4.24005E-01	5.02257E-01	-4.83828E-01
3.15984E-01	3.00880E-01	5.02263E-01	-4.82377E-01
4.14125E-01	-1.30725E-01	5.02265E-01	-4.80945E-01
8.51702E-02	-4.23752E-01	5.02274E-01	-4.79440E-01
-3.28348E-01	-2.77948E-01	5.02271E-01	-4.78013E-01
-4.00085E-01	1.52524E-01	5.02271E-01	-4.76558E-01
-5.94487E-02	4.21992E-01	5.02236E-01	-4.75126E-01
3.39180E-01	2.54686E-01	5.02218E-01	-4.73653E-01
3.85020E-01	-1.73148E-01	5.02214E-01	-4.72209E-01
3.42065E-02	-4.18782E-01	5.02199E-01	-4.70780E-01
-3.48518E-01	-2.31144E-01	5.02145E-01	-4.69348E-01
-3.68993E-01	1.92603E-01	5.02106E-01	-4.67871E-01
-9.54605E-03	4.14169E-01	5.02096E-01	-4.66405E-01
3.56340E-01	2.07458E-01	5.02087E-01	-4.64957E-01
3.52111E-01	-2.10808E-01	5.02053E-01	-4.63504E-01
-1.44353E-02	-4.08208E-01	5.02045E-01	-4.62008E-01
