jMRUI Data Textfile
 
Filename: PE.txt
 
PointsInDataset: 2048
DatasetsInFile: 1
SamplingInterval: 5.00000E-01
ZeroOrderPhase: 0E0
BeginTime: 0E0
TransmitterFrequency: 1.27740E+08
MagneticField: 0E0
TypeOfNucleus: 0E0
NameOfPatient: 
DateOfExperiment: 
Spectrometer: Vespa-Simulation
AdditionalInfo: see 'readme' file for Vespa-Simulation output synopsis
 
  
Signal and FFT 
sig(real)	sig(imag)	fft(real)	fft(imag)
Signal 1 out of 1 in file
2.70247E+00	-2.87113E-05	1.52993E+00	-6.82797E+00
2.39703E+00	-1.13713E+00	1.52607E+00	-6.76676E+00
1.60928E+00	-1.97034E+00	1.52236E+00	-6.70670E+00
5.69966E-01	-2.31062E+00	1.51882E+00	-6.64775E+00
-4.33148E-01	-2.12269E+00	1.51535E+00	-6.58994E+00
-1.14795E+00	-1.52710E+00	1.51197E+00	-6.53314E+00
-1.43455E+00	-7.51596E-01	1.50868E+00	-6.47735E+00
-1.30083E+00	-5.01080E-02	1.50547E+00	-6.42254E+00
-8.87074E-01	3.82007E-01	1.50235E+00	-6.36860E+00
-4.07292E-01	4.67845E-01	1.49942E+00	-6.31561E+00
-6.92786E-02	2.64909E-01	1.49655E+00	-6.26357E+00
-1.64610E-03	-6.61213E-02	1.49373E+00	-6.21240E+00
-2.12541E-01	-3.26810E-01	1.49103E+00	-6.16206E+00
-5.92850E-01	-3.56468E-01	1.48840E+00	-6.11261E+00
-9.60900E-01	-9.11365E-02	1.48579E+00	-6.06392E+00
-1.13153E+00	4.13814E-01	1.48331E+00	-6.01598E+00
-9.84636E-01	1.00408E+00	1.48092E+00	-5.96887E+00
-5.09489E-01	1.48131E+00	1.47855E+00	-5.92251E+00
1.89888E-01	1.67259E+00	1.47626E+00	-5.87683E+00
9.28981E-01	1.49015E+00	1.47406E+00	-5.83188E+00
1.50380E+00	9.61215E-01	1.47193E+00	-5.78765E+00
1.75736E+00	2.18773E-01	1.46984E+00	-5.74412E+00
1.62893E+00	-5.42397E-01	1.46776E+00	-5.70124E+00
1.17026E+00	-1.12855E+00	1.46575E+00	-5.65895E+00
5.24717E-01	-1.40701E+00	1.46383E+00	-5.61732E+00
-1.22217E-01	-1.34363E+00	1.46193E+00	-5.57632E+00
-6.03295E-01	-1.00643E+00	1.46008E+00	-5.53588E+00
-8.20186E-01	-5.36035E-01	1.45833E+00	-5.49606E+00
-7.68285E-01	-9.43959E-02	1.45657E+00	-5.45684E+00
-5.28933E-01	1.89587E-01	1.45483E+00	-5.41813E+00
-2.33693E-01	2.59423E-01	1.45319E+00	-5.37996E+00
-1.44905E-02	1.42936E-01	1.45161E+00	-5.34235E+00
4.26280E-02	-6.54436E-02	1.45003E+00	-5.30531E+00
-7.54252E-02	-2.44162E-01	1.44843E+00	-5.26875E+00
-3.08970E-01	-2.90905E-01	1.44688E+00	-5.23261E+00
-5.51332E-01	-1.59482E-01	1.44548E+00	-5.19697E+00
-6.89927E-01	1.25006E-01	1.44408E+00	-5.16186E+00
-6.47576E-01	4.76790E-01	1.44274E+00	-5.12724E+00
-4.09873E-01	7.80876E-01	1.44139E+00	-5.09315E+00
-2.97471E-02	9.33614E-01	1.43998E+00	-5.05946E+00
3.91114E-01	8.77916E-01	1.43863E+00	-5.02614E+00
7.36816E-01	6.21549E-01	1.43733E+00	-4.99327E+00
9.15051E-01	2.33096E-01	1.43607E+00	-4.96075E+00
8.85610E-01	-1.81991E-01	1.43493E+00	-4.92867E+00
6.70376E-01	-5.16009E-01	1.43383E+00	-4.89712E+00
3.42730E-01	-6.92464E-01	1.43263E+00	-4.86599E+00
1.15440E-03	-6.87129E-01	1.43141E+00	-4.83517E+00
-2.63287E-01	-5.30890E-01	1.43025E+00	-4.80465E+00
-3.94320E-01	-2.94605E-01	1.42917E+00	-4.77455E+00
-3.84164E-01	-6.25140E-02	1.42811E+00	-4.74480E+00
-2.70213E-01	9.61796E-02	1.42709E+00	-4.71542E+00
-1.17213E-01	1.47861E-01	1.42611E+00	-4.68639E+00
7.75727E-03	1.01175E-01	1.42516E+00	-4.65778E+00
5.84488E-02	-1.23870E-03	1.42418E+00	-4.62951E+00
2.31198E-02	-1.01685E-01	1.42316E+00	-4.60154E+00
-7.50557E-02	-1.49608E-01	1.42224E+00	-4.57384E+00
-1.89732E-01	-1.19149E-01	1.42132E+00	-4.54654E+00
-2.70113E-01	-1.64609E-02	1.42039E+00	-4.51953E+00
-2.79607E-01	1.24810E-01	1.41947E+00	-4.49277E+00
-2.07937E-01	2.57222E-01	1.41865E+00	-4.46631E+00
-7.32007E-02	3.36876E-01	1.41784E+00	-4.44023E+00
8.59853E-02	3.38159E-01	1.41699E+00	-4.41444E+00
2.24565E-01	2.61048E-01	1.41615E+00	-4.38888E+00
3.06082E-01	1.29251E-01	1.41538E+00	-4.36366E+00
3.13404E-01	-1.92543E-02	1.41452E+00	-4.33871E+00
2.52109E-01	-1.45336E-01	1.41371E+00	-4.31394E+00
1.46166E-01	-2.20694E-01	1.41295E+00	-4.28942E+00
2.83765E-02	-2.34804E-01	1.41231E+00	-4.26519E+00
-7.06196E-02	-1.95351E-01	1.41165E+00	-4.24132E+00
-1.30900E-01	-1.22850E-01	1.41094E+00	-4.21767E+00
-1.46971E-01	-4.22076E-02	1.41031E+00	-4.19426E+00
-1.26193E-01	2.54089E-02	1.40966E+00	-4.17121E+00
-8.35448E-02	6.77681E-02	1.40890E+00	-4.14835E+00
-3.52054E-02	8.26627E-02	1.40818E+00	-4.12566E+00
6.48190E-03	7.54327E-02	1.40747E+00	-4.10319E+00
3.52357E-02	5.47570E-02	1.40679E+00	-4.08090E+00
5.01683E-02	2.87479E-02	1.40619E+00	-4.05882E+00
5.33769E-02	2.83570E-03	1.40564E+00	-4.03698E+00
4.74147E-02	-2.01858E-02	1.40521E+00	-4.01549E+00
3.39825E-02	-3.87232E-02	1.40454E+00	-3.99444E+00
1.42449E-02	-5.08549E-02	1.40359E+00	-3.97320E+00
-9.80237E-03	-5.38841E-02	1.40305E+00	-3.95192E+00
-3.40827E-02	-4.53696E-02	1.40278E+00	-3.93111E+00
-5.24568E-02	-2.51024E-02	1.40240E+00	-3.91069E+00
-5.84356E-02	3.20570E-03	1.40200E+00	-3.89057E+00
-4.80443E-02	3.17478E-02	1.40130E+00	-3.87068E+00
-2.25330E-02	5.06017E-02	1.40066E+00	-3.85073E+00
1.05924E-02	5.14161E-02	1.40001E+00	-3.83105E+00
3.91805E-02	3.14046E-02	1.39930E+00	-3.81131E+00
5.05171E-02	-4.17939E-03	1.39899E+00	-3.79163E+00
3.65725E-02	-4.25365E-02	1.39882E+00	-3.77266E+00
-1.70119E-03	-6.71427E-02	1.39816E+00	-3.75390E+00
-5.30386E-02	-6.38477E-02	1.39748E+00	-3.73500E+00
-9.85193E-02	-2.70597E-02	1.39696E+00	-3.71617E+00
-1.17773E-01	3.64945E-02	1.39658E+00	-3.69755E+00
-9.67119E-02	1.08336E-01	1.39625E+00	-3.67918E+00
-3.39392E-02	1.63426E-01	1.39594E+00	-3.66107E+00
5.68266E-02	1.78617E-01	1.39558E+00	-3.64320E+00
1.49720E-01	1.41434E-01	1.39511E+00	-3.62549E+00
2.14571E-01	5.59163E-02	1.39460E+00	-3.60789E+00
2.27111E-01	-5.69437E-02	1.39409E+00	-3.59036E+00
1.78078E-01	-1.64865E-01	1.39363E+00	-3.57295E+00
7.77276E-02	-2.34462E-01	1.39321E+00	-3.55571E+00
-4.62507E-02	-2.42612E-01	1.39279E+00	-3.53860E+00
-1.57042E-01	-1.84965E-01	1.39243E+00	-3.52162E+00
-2.20752E-01	-7.84128E-02	1.39210E+00	-3.50488E+00
-2.18053E-01	4.37731E-02	1.39172E+00	-3.48827E+00
-1.51235E-01	1.42681E-01	1.39135E+00	-3.47178E+00
-4.40351E-02	1.86940E-01	1.39100E+00	-3.45544E+00
6.60614E-02	1.63692E-01	1.39064E+00	-3.43926E+00
1.40591E-01	8.34088E-02	1.39026E+00	-3.42320E+00
1.53534E-01	-2.33567E-02	1.38989E+00	-3.40725E+00
1.00747E-01	-1.16389E-01	1.38957E+00	-3.39142E+00
1.86446E-03	-1.59921E-01	1.38925E+00	-3.37577E+00
-1.06198E-01	-1.35520E-01	1.38894E+00	-3.36025E+00
-1.82020E-01	-4.91302E-02	1.38857E+00	-3.34488E+00
-1.94425E-01	7.03457E-02	1.38822E+00	-3.32956E+00
-1.33959E-01	1.80709E-01	1.38789E+00	-3.31439E+00
-1.69755E-02	2.41045E-01	1.38757E+00	-3.29935E+00
1.19290E-01	2.26300E-01	1.38726E+00	-3.28441E+00
2.29151E-01	1.36633E-01	1.38695E+00	-3.26962E+00
2.74193E-01	-1.87988E-03	1.38663E+00	-3.25491E+00
2.36791E-01	-1.45524E-01	1.38636E+00	-3.24034E+00
1.26723E-01	-2.47594E-01	1.38604E+00	-3.22592E+00
-2.15988E-02	-2.74337E-01	1.38569E+00	-3.21153E+00
-1.60487E-01	-2.16693E-01	1.38546E+00	-3.19722E+00
-2.44991E-01	-9.36713E-02	1.38527E+00	-3.18313E+00
-2.48208E-01	5.38533E-02	1.38500E+00	-3.16923E+00
-1.70482E-01	1.76912E-01	1.38465E+00	-3.15536E+00
-3.93409E-02	2.35050E-01	1.38433E+00	-3.14157E+00
9.99512E-02	2.10072E-01	1.38398E+00	-3.12783E+00
1.99799E-01	1.12125E-01	1.38373E+00	-3.11413E+00
2.26572E-01	-2.38858E-02	1.38359E+00	-3.10060E+00
1.72002E-01	-1.50409E-01	1.38339E+00	-3.08730E+00
5.58376E-02	-2.23634E-01	1.38315E+00	-3.07409E+00
-8.11633E-02	-2.18513E-01	1.38281E+00	-3.06101E+00
-1.91419E-01	-1.37220E-01	1.38241E+00	-3.04786E+00
-2.36970E-01	-8.20001E-03	1.38216E+00	-3.03475E+00
-2.02498E-01	1.23914E-01	1.38195E+00	-3.02180E+00
-1.00395E-01	2.13761E-01	1.38177E+00	-3.00893E+00
3.37252E-02	2.30958E-01	1.38167E+00	-2.99626E+00
1.53526E-01	1.70457E-01	1.38143E+00	-2.98378E+00
2.18042E-01	5.40701E-02	1.38108E+00	-2.97128E+00
2.05777E-01	-7.72893E-02	1.38081E+00	-2.95878E+00
1.21978E-01	-1.77884E-01	1.38059E+00	-2.94640E+00
-3.43853E-03	-2.13005E-01	1.38036E+00	-2.93412E+00
-1.26342E-01	-1.70788E-01	1.38014E+00	-2.92192E+00
-2.03716E-01	-6.61613E-02	1.37995E+00	-2.90977E+00
-2.08413E-01	6.45070E-02	1.37981E+00	-2.89778E+00
-1.38317E-01	1.76038E-01	1.37962E+00	-2.88593E+00
-1.68411E-02	2.29934E-01	1.37935E+00	-2.87412E+00
1.15277E-01	2.07398E-01	1.37911E+00	-2.86234E+00
2.14015E-01	1.15440E-01	1.37887E+00	-2.85064E+00
2.46864E-01	-1.58447E-02	1.37868E+00	-2.83898E+00
2.03580E-01	-1.43766E-01	1.37850E+00	-2.82747E+00
9.91342E-02	-2.27570E-01	1.37830E+00	-2.81599E+00
-3.19033E-02	-2.41968E-01	1.37817E+00	-2.80462E+00
-1.47420E-01	-1.85098E-01	1.37802E+00	-2.79337E+00
-2.12014E-01	-7.83795E-02	1.37780E+00	-2.78223E+00
-2.08529E-01	4.14661E-02	1.37756E+00	-2.77108E+00
-1.43050E-01	1.35332E-01	1.37737E+00	-2.76002E+00
-4.18558E-02	1.74871E-01	1.37717E+00	-2.74900E+00
5.83311E-02	1.51617E-01	1.37693E+00	-2.73811E+00
1.23285E-01	7.89398E-02	1.37676E+00	-2.72713E+00
1.32853E-01	-1.35025E-02	1.37662E+00	-2.71635E+00
8.72733E-02	-9.06628E-02	1.37657E+00	-2.70562E+00
6.27077E-03	-1.24432E-01	1.37636E+00	-2.69510E+00
-7.85308E-02	-1.03130E-01	1.37619E+00	-2.68456E+00
-1.34942E-01	-3.49938E-02	1.37594E+00	-2.67405E+00
-1.41392E-01	5.52578E-02	1.37581E+00	-2.66362E+00
-9.40747E-02	1.35395E-01	1.37551E+00	-2.65324E+00
-7.78962E-03	1.76896E-01	1.37539E+00	-2.64286E+00
8.95418E-02	1.64513E-01	1.37525E+00	-2.63252E+00
1.66582E-01	1.01033E-01	1.37520E+00	-2.62238E+00
1.99080E-01	5.77415E-03	1.37512E+00	-2.61234E+00
1.77510E-01	-9.22763E-02	1.37489E+00	-2.60246E+00
1.09572E-01	-1.64259E-01	1.37455E+00	-2.59244E+00
1.68728E-02	-1.90675E-01	1.37437E+00	-2.58236E+00
-7.27319E-02	-1.67044E-01	1.37432E+00	-2.57244E+00
-1.34352E-01	-1.04328E-01	1.37420E+00	-2.56265E+00
-1.53680E-01	-2.43259E-02	1.37411E+00	-2.55289E+00
-1.30618E-01	4.80964E-02	1.37404E+00	-2.54329E+00
-7.79934E-02	9.31689E-02	1.37384E+00	-2.53383E+00
-1.62105E-02	1.01952E-01	1.37347E+00	-2.52427E+00
3.40870E-02	7.80911E-02	1.37321E+00	-2.51453E+00
5.87239E-02	3.52430E-02	1.37325E+00	-2.50487E+00
5.39066E-02	-8.51825E-03	1.37334E+00	-2.49555E+00
2.63035E-02	-3.71885E-02	1.37322E+00	-2.48639E+00
-1.03546E-02	-4.19559E-02	1.37297E+00	-2.47719E+00
-4.06810E-02	-2.33871E-02	1.37276E+00	-2.46794E+00
