jMRUI Data Textfile
 
Filename: Tau.txt
 
PointsInDataset: 2048
DatasetsInFile: 1
SamplingInterval: 5.00000E-01
ZeroOrderPhase: 0E0
BeginTime: 0E0
TransmitterFrequency: 1.27740E+08
MagneticField: 0E0
TypeOfNucleus: 0E0
NameOfPatient: 
DateOfExperiment: 
Spectrometer: Vespa-Simulation
AdditionalInfo: see 'readme' file for Vespa-Simulation output synopsis
 
  
Signal and FFT 
sig(real)	sig(imag)	fft(real)	fft(imag)
Signal 1 out of 1 in file
3.87241E+00	-4.82297E-07	1.96866E+00	-6.91537E+00
3.29419E+00	-2.01283E+00	1.96822E+00	-6.87454E+00
1.75361E+00	-3.41979E+00	1.96788E+00	-6.83409E+00
-2.84998E-01	-3.81002E+00	1.96755E+00	-6.79415E+00
-2.21358E+00	-3.08008E+00	1.96719E+00	-6.75459E+00
-3.46469E+00	-1.46142E+00	1.96691E+00	-6.71546E+00
-3.68127E+00	5.53833E-01	1.96663E+00	-6.67680E+00
-2.82004E+00	2.36477E+00	1.96638E+00	-6.63856E+00
-1.15841E+00	3.44369E+00	1.96608E+00	-6.60082E+00
7.95593E-01	3.49235E+00	1.96569E+00	-6.56342E+00
2.46084E+00	2.52528E+00	1.96531E+00	-6.52634E+00
3.35845E+00	8.56962E-01	1.96496E+00	-6.48961E+00
3.25153E+00	-1.00102E+00	1.96468E+00	-6.45324E+00
2.20781E+00	-2.49877E+00	1.96444E+00	-6.41729E+00
5.68673E-01	-3.21314E+00	1.96418E+00	-6.38177E+00
-1.16280E+00	-2.96873E+00	1.96389E+00	-6.34658E+00
-2.47802E+00	-1.87986E+00	1.96362E+00	-6.31176E+00
-3.01413E+00	-3.03958E-01	1.96331E+00	-6.27729E+00
-2.65499E+00	1.27589E+00	1.96298E+00	-6.24311E+00
-1.55339E+00	2.40054E+00	1.96272E+00	-6.20926E+00
-7.16015E-02	2.76964E+00	1.96246E+00	-6.17578E+00
1.33761E+00	2.32195E+00	1.96218E+00	-6.14260E+00
2.27057E+00	1.23944E+00	1.96196E+00	-6.10973E+00
2.48930E+00	-1.21620E-01	1.96171E+00	-6.07723E+00
1.98129E+00	-1.34765E+00	1.96148E+00	-6.04500E+00
9.47855E-01	-2.09430E+00	1.96130E+00	-6.01313E+00
-2.71018E-01	-2.18360E+00	1.96105E+00	-5.98162E+00
-1.30796E+00	-1.64427E+00	1.96076E+00	-5.95035E+00
-1.87952E+00	-6.86800E-01	1.96049E+00	-5.91933E+00
-1.86347E+00	3.74141E-01	1.96024E+00	-5.88859E+00
-1.32118E+00	1.22251E+00	1.96004E+00	-5.85811E+00
-4.62560E-01	1.63516E+00	1.95990E+00	-5.82797E+00
4.30788E-01	1.53968E+00	1.95973E+00	-5.79815E+00
1.09705E+00	1.02099E+00	1.95955E+00	-5.76864E+00
1.37087E+00	2.79326E-01	1.95930E+00	-5.73939E+00
1.22244E+00	-4.42730E-01	1.95906E+00	-5.71036E+00
7.51083E-01	-9.38657E-01	1.95884E+00	-5.68159E+00
1.39277E-01	-1.09645E+00	1.95859E+00	-5.65309E+00
-4.13639E-01	-9.20974E-01	1.95835E+00	-5.62476E+00
-7.55373E-01	-5.16966E-01	1.95822E+00	-5.59671E+00
-8.21527E-01	-4.25016E-02	1.95808E+00	-5.56895E+00
-6.43163E-01	3.48699E-01	1.95797E+00	-5.54148E+00
-3.22272E-01	5.55737E-01	1.95781E+00	-5.51434E+00
1.27607E-02	5.55044E-01	1.95751E+00	-5.48743E+00
2.54231E-01	3.95356E-01	1.95715E+00	-5.46059E+00
3.48409E-01	1.68658E-01	1.95693E+00	-5.43386E+00
3.04965E-01	-2.98757E-02	1.95684E+00	-5.40744E+00
1.82165E-01	-1.37376E-01	1.95677E+00	-5.38131E+00
5.59738E-02	-1.41722E-01	1.95671E+00	-5.35550E+00
-1.35758E-02	-7.79806E-02	1.95654E+00	-5.32997E+00
-5.65805E-03	-6.43216E-03	1.95628E+00	-5.30459E+00
5.66435E-02	1.76229E-02	1.95603E+00	-5.27935E+00
1.20681E-01	-3.04190E-02	1.95581E+00	-5.25427E+00
1.30750E-01	-1.33395E-01	1.95565E+00	-5.22939E+00
5.53981E-02	-2.39967E-01	1.95555E+00	-5.20475E+00
-9.57419E-02	-2.87367E-01	1.95544E+00	-5.18036E+00
-2.72597E-01	-2.29930E-01	1.95533E+00	-5.15619E+00
-4.02717E-01	-6.17773E-02	1.95519E+00	-5.13225E+00
-4.20033E-01	1.75742E-01	1.95501E+00	-5.10848E+00
-2.93134E-01	4.05409E-01	1.95485E+00	-5.08492E+00
-4.20177E-02	5.40707E-01	1.95459E+00	-5.06155E+00
2.63836E-01	5.18189E-01	1.95431E+00	-5.03824E+00
5.26211E-01	3.23619E-01	1.95417E+00	-5.01504E+00
6.51176E-01	1.87501E-03	1.95413E+00	-4.99209E+00
5.82789E-01	-3.53804E-01	1.95412E+00	-4.96939E+00
3.25608E-01	-6.30483E-01	1.95410E+00	-4.94701E+00
-5.26902E-02	-7.32793E-01	1.95391E+00	-4.92486E+00
-4.40065E-01	-6.16060E-01	1.95363E+00	-4.90277E+00
-7.14933E-01	-3.03980E-01	1.95336E+00	-4.88074E+00
-7.85596E-01	1.15871E-01	1.95314E+00	-4.85883E+00
-6.21255E-01	5.17917E-01	1.95301E+00	-4.83700E+00
-2.64037E-01	7.77521E-01	1.95305E+00	-4.81542E+00
1.82259E-01	8.10861E-01	1.95310E+00	-4.79417E+00
5.83664E-01	6.02413E-01	1.95304E+00	-4.77318E+00
8.17486E-01	2.11101E-01	1.95287E+00	-4.75237E+00
8.10911E-01	-2.47102E-01	1.95256E+00	-4.73164E+00
5.64078E-01	-6.34710E-01	1.95223E+00	-4.71090E+00
1.50306E-01	-8.35230E-01	1.95201E+00	-4.69021E+00
-3.06396E-01	-7.88926E-01	1.95190E+00	-4.66964E+00
-6.69594E-01	-5.10997E-01	1.95195E+00	-4.64926E+00
-8.32182E-01	-8.63504E-02	1.95205E+00	-4.62924E+00
-7.48655E-01	3.57128E-01	1.95204E+00	-4.60943E+00
-4.47935E-01	6.87886E-01	1.95197E+00	-4.58986E+00
-2.32997E-02	8.10616E-01	1.95166E+00	-4.57039E+00
3.97240E-01	6.94183E-01	1.95133E+00	-4.55084E+00
6.90168E-01	3.79323E-01	1.95114E+00	-4.53133E+00
7.73432E-01	-3.55649E-02	1.95101E+00	-4.51193E+00
6.29670E-01	-4.25640E-01	1.95113E+00	-4.49260E+00
3.09133E-01	-6.77829E-01	1.95145E+00	-4.47387E+00
-8.77380E-02	-7.23923E-01	1.95123E+00	-4.45551E+00
-4.42144E-01	-5.59112E-01	1.95079E+00	-4.43686E+00
-6.52891E-01	-2.40713E-01	1.95053E+00	-4.41816E+00
-6.65543E-01	1.31637E-01	1.95044E+00	-4.39954E+00
-4.86189E-01	4.47301E-01	1.95055E+00	-4.38115E+00
-1.76694E-01	6.17804E-01	1.95061E+00	-4.36318E+00
1.66475E-01	6.01688E-01	1.95033E+00	-4.34536E+00
4.42334E-01	4.14043E-01	1.94999E+00	-4.32728E+00
5.75244E-01	1.18933E-01	1.94998E+00	-4.30924E+00
5.35506E-01	-1.92197E-01	1.95012E+00	-4.29151E+00
3.45216E-01	-4.28900E-01	1.95023E+00	-4.27410E+00
6.85966E-02	-5.27894E-01	1.95020E+00	-4.25691E+00
-2.09367E-01	-4.69745E-01	1.94997E+00	-4.23982E+00
-4.08922E-01	-2.81596E-01	1.94963E+00	-4.22267E+00
-4.78301E-01	-2.61218E-02	1.94935E+00	-4.20543E+00
-4.06668E-01	2.18972E-01	1.94930E+00	-4.18820E+00
-2.24407E-01	3.84416E-01	1.94950E+00	-4.17132E+00
8.61875E-03	4.28711E-01	1.94947E+00	-4.15484E+00
2.22343E-01	3.47961E-01	1.94915E+00	-4.13829E+00
3.57334E-01	1.74248E-01	1.94896E+00	-4.12159E+00
3.80975E-01	-3.62106E-02	1.94894E+00	-4.10502E+00
2.94745E-01	-2.20947E-01	1.94906E+00	-4.08860E+00
1.31209E-01	-3.29419E-01	1.94930E+00	-4.07260E+00
-5.75706E-02	-3.36489E-01	1.94908E+00	-4.05694E+00
-2.16254E-01	-2.47602E-01	1.94861E+00	-4.04091E+00
-3.02135E-01	-9.49139E-02	1.94847E+00	-4.02480E+00
-2.96178E-01	7.37722E-02	1.94841E+00	-4.00889E+00
-2.06635E-01	2.09625E-01	1.94845E+00	-3.99307E+00
-6.46797E-02	2.76589E-01	1.94860E+00	-3.97751E+00
8.59768E-02	2.60511E-01	1.94861E+00	-3.96225E+00
2.02219E-01	1.71549E-01	1.94843E+00	-3.94700E+00
2.53511E-01	3.96268E-02	1.94823E+00	-3.93179E+00
2.29553E-01	-9.52827E-02	1.94795E+00	-3.91655E+00
1.41777E-01	-1.94916E-01	1.94780E+00	-3.90123E+00
1.87872E-02	-2.33264E-01	1.94785E+00	-3.88606E+00
-1.02649E-01	-2.03033E-01	1.94794E+00	-3.87114E+00
-1.88318E-01	-1.16550E-01	1.94796E+00	-3.85640E+00
-2.15875E-01	-1.23158E-03	1.94791E+00	-3.84176E+00
-1.80430E-01	1.08841E-01	1.94779E+00	-3.82719E+00
-9.50177E-02	1.82730E-01	1.94766E+00	-3.81265E+00
1.38835E-02	2.01098E-01	1.94757E+00	-3.79817E+00
1.14368E-01	1.61075E-01	1.94748E+00	-3.78381E+00
1.78173E-01	7.63568E-02	1.94735E+00	-3.76948E+00
1.88480E-01	-2.72566E-02	1.94731E+00	-3.75522E+00
1.44209E-01	-1.19533E-01	1.94726E+00	-3.74110E+00
5.97933E-02	-1.74458E-01	1.94717E+00	-3.72704E+00
-3.93624E-02	-1.77436E-01	1.94716E+00	-3.71303E+00
-1.24384E-01	-1.29099E-01	1.94718E+00	-3.69923E+00
-1.71209E-01	-4.47320E-02	1.94708E+00	-3.68552E+00
-1.67334E-01	5.04702E-02	1.94697E+00	-3.67185E+00
-1.15098E-01	1.28777E-01	1.94677E+00	-3.65824E+00
-3.07146E-02	1.67958E-01	1.94660E+00	-3.64452E+00
6.06782E-02	1.57553E-01	1.94666E+00	-3.63086E+00
1.32445E-01	1.01667E-01	1.94679E+00	-3.61751E+00
1.64190E-01	1.75008E-02	1.94678E+00	-3.60432E+00
1.47565E-01	-6.98768E-02	1.94666E+00	-3.59118E+00
8.84619E-02	-1.35006E-01	1.94649E+00	-3.57804E+00
5.03285E-03	-1.59424E-01	1.94635E+00	-3.56486E+00
-7.78624E-02	-1.36961E-01	1.94631E+00	-3.55175E+00
-1.36080E-01	-7.52923E-02	1.94631E+00	-3.53877E+00
-1.53271E-01	6.61397E-03	1.94630E+00	-3.52592E+00
-1.25511E-01	8.43314E-02	1.94624E+00	-3.51316E+00
-6.21744E-02	1.35304E-01	1.94614E+00	-3.50042E+00
1.72097E-02	1.45473E-01	1.94609E+00	-3.48771E+00
8.89672E-02	1.13166E-01	1.94609E+00	-3.47511E+00
1.32428E-01	4.92508E-02	1.94606E+00	-3.46261E+00
1.35946E-01	-2.64889E-02	1.94604E+00	-3.45023E+00
1.00042E-01	-9.15181E-02	1.94587E+00	-3.43791E+00
3.68045E-02	-1.27333E-01	1.94570E+00	-3.42549E+00
-3.41503E-02	-1.24791E-01	1.94569E+00	-3.41304E+00
-9.18096E-02	-8.64321E-02	1.94587E+00	-3.40084E+00
-1.20081E-01	-2.51859E-02	1.94589E+00	-3.38887E+00
-1.12296E-01	3.99443E-02	1.94584E+00	-3.37694E+00
-7.27307E-02	8.98377E-02	1.94567E+00	-3.36504E+00
-1.47352E-02	1.10929E-01	1.94548E+00	-3.35308E+00
4.37457E-02	9.89052E-02	1.94541E+00	-3.34106E+00
8.57648E-02	5.94172E-02	1.94545E+00	-3.32924E+00
1.00319E-01	5.76806E-03	1.94545E+00	-3.31749E+00
8.51947E-02	-4.55578E-02	1.94545E+00	-3.30584E+00
4.69796E-02	-7.99531E-02	1.94544E+00	-3.29429E+00
-1.53284E-03	-8.88609E-02	1.94536E+00	-3.28280E+00
-4.55917E-02	-7.18007E-02	1.94526E+00	-3.27134E+00
-7.29654E-02	-3.58388E-02	1.94514E+00	-3.25990E+00
-7.72873E-02	7.12510E-03	1.94505E+00	-3.24845E+00
-5.93758E-02	4.42418E-02	1.94503E+00	-3.23710E+00
-2.63174E-02	6.55216E-02	1.94501E+00	-3.22578E+00
1.11624E-02	6.63983E-02	1.94504E+00	-3.21459E+00
4.21148E-02	4.85002E-02	1.94505E+00	-3.20353E+00
5.84719E-02	1.85534E-02	1.94494E+00	-3.19251E+00
5.69905E-02	-1.40212E-02	1.94482E+00	-3.18146E+00
3.96333E-02	-3.99779E-02	1.94474E+00	-3.17045E+00
1.24883E-02	-5.27237E-02	1.94468E+00	-3.15944E+00
-1.62710E-02	-4.97886E-02	1.94472E+00	-3.14853E+00
-3.87261E-02	-3.30476E-02	1.94474E+00	-3.13774E+00
-4.91773E-02	-7.83296E-03	1.94473E+00	-3.12703E+00
-4.53690E-02	1.86777E-02	1.94470E+00	-3.11635E+00
-2.87786E-02	3.93246E-02	1.94463E+00	-3.10577E+00
-4.06060E-03	4.86493E-02	1.94451E+00	-3.09515E+00
2.21382E-02	4.41030E-02	1.94448E+00	-3.08452E+00
4.27230E-02	2.66152E-02	1.94451E+00	-3.07404E+00
5.17960E-02	4.47914E-04	1.94452E+00	-3.06364E+00
4.61070E-02	-2.76283E-02	1.94445E+00	-3.05329E+00
