 Vespa-Simulation Mixed Metabolite Output
 This file was generated by Vespa-Simulation. You can learn about and download Vespa here:
https://github.com/vespa-mrs/vespa/tree/main/vespa

 
 Output Path/Filename = /home/stud/casperc/bhome/Project1(DeepFit)/DeepFit-data-generation/Initial_spectra_linewidth_10_TE30_1024p
 Output Loop Values = (1,1,1)  ( Loop 1 = 11, Loop 2 = 11, Loop3 Inactive )
 Output Comment
 ---------------------------------------------------------------------------
 
 
 Experiment Information
 ---------------------------------------------------------------------------
 --- Experiment 982623a4-1070-4538-bb82-a4cf0a440db0 ---
 Name: SyntheticDataSetDeepFitTE22
 Public: False
 Created: 2024-10-04T10:31:50
 Comment (abbr.): 
 PI: Casper Cappelen
 b0: 127.740000
 Peak Search PPM low/high: -10.000000 / 10.000000
 Blend tol. PPM/phase: 0.000150 / 50.000000
 Pulse seq.: 43be13ae-de9a-40a1-9a2d-c872d8bjs100 (PRESS Ideal)
 0 User static parameters: 
 28 Metabolites: 2-hydroxyglutarate, alanine, choline-methylene, choline-trimethyl, choline-truncated, creatine, ethanolamine, gaba, glucose-alpha, glucose-beta, glutamate, glutamine, glutathione-glutamate, glutathione-glycine-cysteine, glycine, GPC-gp, GPC-pcholine1, GPC-pcholine2, lactate, myo-inositol, n-acetylaspartate, NAAG-truncated, phosphocreatine, phosphorylcholine-notrimethyl, phosphorylcholine-trimethyl, phosphorylethanolamine, pyruvate, taurine
 28 Simulations: (not shown)
 
 Metabolite Formatting Information
 ---------------------------------------------------------------------------
 Name=2-hydroxyglutarate Abbr=2HG Scale=1.0 Shift=0.0 PPM Start=-7.81 PPM End=7.81
 Name=alanine Abbr=Ala Scale=1.0 Shift=0.0 PPM Start=-7.81 PPM End=7.81
 Name=choline-methylene Abbr=choline-methylene Scale=1.0 Shift=0.0 PPM Start=-7.81 PPM End=7.81
 Name=choline-trimethyl Abbr=choline-trimethyl Scale=1.0 Shift=0.0 PPM Start=-7.81 PPM End=7.81
 Name=choline-truncated Abbr=choline-truncated Scale=1.0 Shift=0.0 PPM Start=-7.81 PPM End=7.81
 Name=creatine Abbr=Cr Scale=1.0 Shift=0.0 PPM Start=-7.81 PPM End=7.81
 Name=ethanolamine Abbr=ETA Scale=1.0 Shift=0.0 PPM Start=-7.81 PPM End=7.81
 Name=gaba Abbr=GABA Scale=1.0 Shift=0.0 PPM Start=-7.81 PPM End=7.81
 Name=glutamate Abbr=Glu Scale=1.0 Shift=0.0 PPM Start=-7.81 PPM End=7.81
 Name=glutamine Abbr=Gln Scale=1.0 Shift=0.0 PPM Start=-7.81 PPM End=7.81
 Name=glutathione-glutamate Abbr=glutathione-glutamate Scale=1.0 Shift=0.0 PPM Start=-7.81 PPM End=7.81
 Name=glutathione-glycine-cysteine Abbr=GSH Scale=1.0 Shift=0.0 PPM Start=-7.81 PPM End=7.81
 Name=glycine Abbr=Gly Scale=1.0 Shift=0.0 PPM Start=-7.81 PPM End=7.81
 Name=GPC-gp Abbr=GPC-gp Scale=1.0 Shift=0.0 PPM Start=-7.81 PPM End=7.81
 Name=GPC-pcholine1 Abbr=GPC-pcholine1 Scale=1.0 Shift=0.0 PPM Start=-7.81 PPM End=7.81
 Name=GPC-pcholine2 Abbr=GPC-pcholine2 Scale=1.0 Shift=0.0 PPM Start=-7.81 PPM End=7.81
 Name=lactate Abbr=Lac Scale=1.0 Shift=0.0 PPM Start=-7.81 PPM End=7.81
 Name=myo-inositol Abbr=mI Scale=1.0 Shift=0.0 PPM Start=-7.81 PPM End=7.81
 Name=n-acetylaspartate Abbr=NAA Scale=1.0 Shift=0.0 PPM Start=-7.18 PPM End=7.81
 Name=NAAG-truncated Abbr=NAAG Scale=1.0 Shift=0.0 PPM Start=-7.81 PPM End=7.81
 Name=phosphocreatine Abbr=PCr Scale=1.0 Shift=0.0 PPM Start=-7.81 PPM End=7.81
 Name=phosphorylcholine-notrimethyl Abbr=phosphorylcholine-notrimethyl Scale=1.0 Shift=0.0 PPM Start=-7.81 PPM End=7.81
 Name=phosphorylcholine-trimethyl Abbr=phosphorylcholine-trimethyl Scale=1.0 Shift=0.0 PPM Start=-7.81 PPM End=7.81
 Name=phosphorylethanolamine Abbr=PE Scale=1.0 Shift=0.0 PPM Start=-7.81 PPM End=7.81
 Name=pyruvate Abbr=Pyr Scale=1.0 Shift=0.0 PPM Start=-7.51 PPM End=7.81
 Name=taurine Abbr=Tau Scale=1.0 Shift=0.0 PPM Start=7.81 PPM End=7.81
 Name=glucose-beta+glucose-alpha Abbr=Glc Scale=1.0 Shift=0.0 PPM Start=-7.81 PPM End=7.81
   Mixture of [metab*scale] = glucose-beta*1.000000 + glucose-alpha*1.000000
 
 ===========================================================================
 This LCModel format RAW file was created using the 
 Vespa-Simulation spectral simulation program using 
 the following settings and parameters 
 
 Sweep Width = 3500.0 Hz 
 Vector Size = 2048 points 
 Apodization = 15.0 Hz Lorentzian broadening
 B0 Field    = 127.74 MHz 
 Ref Singlet = False
  
 $NMID ID='2HG'
 FMTDAT='(2E16.6)'
 VOLUME=1.0
 TRAMP=1.0
 $END
    4.379064E+00    4.758242E-02
    3.678379E+00    2.145333E+00
    1.981898E+00    3.488436E+00
   -1.034024E-01    3.667193E+00
   -1.857302E+00    2.691750E+00
   -2.705608E+00    9.741178E-01
   -2.417975E+00   -8.332604E-01
   -1.174976E+00   -2.078723E+00
    5.144908E-01   -2.342077E+00
    2.009167E+00   -1.572134E+00
    2.768803E+00   -8.601178E-02
    2.539384E+00    1.562476E+00
    1.426340E+00    2.790946E+00
   -1.638311E-01    3.194348E+00
   -1.684519E+00    2.675107E+00
   -2.648520E+00    1.456303E+00
   -2.792474E+00   -1.886200E-02
   -2.150327E+00   -1.257000E+00
   -1.017064E+00   -1.888555E+00
    1.756451E-01   -1.783850E+00
    1.020371E+00   -1.075245E+00
    1.271250E+00   -8.608166E-02
    9.118036E-01    7.996766E-01
    1.362186E-01    1.275418E+00
   -7.402917E-01    1.208216E+00
   -1.402745E+00    6.642941E-01
   -1.643314E+00   -1.370907E-01
   -1.418183E+00   -9.166457E-01
   -8.408227E-01   -1.436551E+00
   -1.225725E-01   -1.573807E+00
    5.115918E-01   -1.344070E+00
    8.989188E-01   -8.747020E-01
    9.813875E-01   -3.445640E-01
    8.056706E-01    8.321891E-02
    4.878033E-01    3.107344E-01
    1.616373E-01    3.231181E-01
   -6.779579E-02    1.748486E-01
   -1.505812E-01   -4.407846E-02
   -9.331043E-02   -2.454282E-01
    5.882254E-02   -3.692961E-01
    2.474147E-01   -3.932000E-01
    4.221062E-01   -3.255167E-01
    5.507349E-01   -1.910108E-01
    6.184008E-01   -1.736070E-02
    6.204717E-01    1.714584E-01
    5.563432E-01    3.544266E-01
    4.284057E-01    5.094420E-01
    2.463144E-01    6.113999E-01
    3.266380E-02    6.361295E-01
   -1.754954E-01    5.697655E-01
   -3.328020E-01    4.190728E-01
   -3.991672E-01    2.166005E-01
   -3.558190E-01    1.602074E-02
   -2.167498E-01   -1.227645E-01
   -2.928975E-02   -1.543092E-01
    1.384136E-01   -6.610725E-02
    2.197078E-01    1.130565E-01
    1.737642E-01    3.195212E-01
    2.459748E-03    4.749111E-01
   -2.472427E-01    5.132744E-01
   -4.973739E-01    4.054540E-01
   -6.650937E-01    1.712307E-01
   -6.915368E-01   -1.256199E-01
   -5.630747E-01   -3.982276E-01
   -3.168581E-01   -5.662033E-01
   -2.860334E-02   -5.831573E-01
    2.132221E-01   -4.525651E-01
    3.375962E-01   -2.261077E-01
    3.146588E-01    1.462970E-02
    1.649358E-01    1.864957E-01
   -4.903297E-02    2.330019E-01
   -2.452513E-01    1.426297E-01
   -3.506826E-01   -4.882517E-02
   -3.256483E-01   -2.720697E-01
   -1.758853E-01   -4.489904E-01
    5.121230E-02   -5.191433E-01
    2.841858E-01   -4.591444E-01
    4.522995E-01   -2.886207E-01
    5.086309E-01   -6.158401E-02
    4.440539E-01    1.530836E-01
    2.878482E-01    2.948695E-01
    9.572381E-02    3.304977E-01
   -6.994807E-02    2.627127E-01
   -1.606248E-01    1.266795E-01
   -1.560676E-01   -2.383956E-02
   -6.851560E-02   -1.351771E-01
    6.386189E-02   -1.709402E-01
    1.913135E-01   -1.222177E-01
    2.692811E-01   -8.161931E-03
    2.721183E-01    1.323687E-01
    1.996046E-01    2.546911E-01
    7.491402E-02    3.227011E-01
   -6.452942E-02    3.193509E-01
   -1.797987E-01    2.502120E-01
   -2.423963E-01    1.397434E-01
   -2.419069E-01    2.214737E-02
   -1.873626E-01   -6.986787E-02
   -1.025790E-01   -1.146881E-01
   -1.753120E-02   -1.071224E-01
    4.123380E-02   -5.822923E-02
    5.816569E-02    9.693016E-03
    3.219366E-02    7.092820E-02
   -2.442486E-02    1.043634E-01
   -9.109386E-02    9.931177E-02
   -1.457767E-01    5.766492E-02
   -1.716254E-01   -7.844784E-03
   -1.614171E-01   -7.837745E-02
   -1.187573E-01   -1.349679E-01
   -5.606652E-02   -1.639727E-01
    9.767711E-03   -1.604457E-01
    6.253441E-02   -1.286969E-01
    9.116955E-02   -8.020779E-02
    9.232287E-02   -2.973274E-02
    7.051917E-02    9.120325E-03
    3.610871E-02    2.757086E-02
    1.801385E-03    2.361162E-02
   -2.112057E-02    1.925313E-03
   -2.584227E-02   -2.806464E-02
   -1.154119E-02   -5.527581E-02
    1.688060E-02   -7.023814E-02
    5.062245E-02   -6.764689E-02
    7.975829E-02   -4.755054E-02
    9.607702E-02   -1.498379E-02
    9.527351E-02    2.175792E-02
    7.789568E-02    5.361728E-02
    4.889536E-02    7.331618E-02
    1.600073E-02    7.724141E-02
   -1.259036E-02    6.620638E-02
   -3.047066E-02    4.493348E-02
   -3.468447E-02    2.049935E-02
   -2.631407E-02    2.090141E-04
   -9.906169E-03   -1.046861E-02
    8.043736E-03   -9.332102E-03
    2.107948E-02    2.126967E-03
    2.464838E-02    1.937408E-02
    1.733059E-02    3.632176E-02
    1.099253E-03    4.719634E-02
   -1.941614E-02    4.822477E-02
   -3.840706E-02    3.866091E-02
   -5.064095E-02    2.088326E-02
   -5.297538E-02   -4.379895E-04
   -4.517943E-02   -1.978975E-02
   -2.987636E-02   -3.246647E-02
   -1.164071E-02   -3.589845E-02
    4.436054E-03   -3.028903E-02
    1.426240E-02   -1.840123E-02
    1.589540E-02   -4.591546E-03
    9.980139E-03    6.575656E-03
   -5.981481E-04    1.170920E-02
   -1.172430E-02    9.544260E-03
   -1.938145E-02    1.201902E-03
   -2.087988E-02   -1.029101E-02
   -1.561750E-02   -2.103914E-02
   -5.156234E-03   -2.753379E-02
    7.365293E-03   -2.771688E-02
    1.828292E-02   -2.155198E-02
    2.456545E-02   -1.093536E-02
    2.471774E-02    9.877889E-04
    1.915891E-02    1.085921E-02
    9.980235E-03    1.615875E-02
    1.965211E-04    1.592467E-02
   -7.252025E-03    1.095159E-02
   -1.041281E-02    3.416226E-03
   -8.862299E-03   -3.911447E-03
   -3.722989E-03   -8.595182E-03
    2.818250E-03   -9.289525E-03
    8.305814E-03   -6.090437E-03
    1.083790E-02   -3.906864E-04
    9.652113E-03    5.679573E-03
    5.289708E-03    1.001498E-02
