 Vespa-Simulation Mixed Metabolite Output
 This file was generated by Vespa-Simulation. You can learn about and download Vespa here:
https://github.com/vespa-mrs/vespa/tree/main/vespa

 
 Output Path/Filename = /home/stud/casperc/bhome/Project1(DeepFit)/DeepFit-data-generation/Initial_spectra_linewidth_10_TE30_1024p
 Output Loop Values = (1,1,1)  ( Loop 1 = 11, Loop 2 = 11, Loop3 Inactive )
 Output Comment
 ---------------------------------------------------------------------------
 
 
 Experiment Information
 ---------------------------------------------------------------------------
 --- Experiment 982623a4-1070-4538-bb82-a4cf0a440db0 ---
 Name: SyntheticDataSetDeepFitTE22
 Public: False
 Created: 2024-10-04T10:31:50
 Comment (abbr.): 
 PI: Casper Cappelen
 b0: 127.740000
 Peak Search PPM low/high: -10.000000 / 10.000000
 Blend tol. PPM/phase: 0.000150 / 50.000000
 Pulse seq.: 43be13ae-de9a-40a1-9a2d-c872d8bjs100 (PRESS Ideal)
 0 User static parameters: 
 28 Metabolites: 2-hydroxyglutarate, alanine, choline-methylene, choline-trimethyl, choline-truncated, creatine, ethanolamine, gaba, glucose-alpha, glucose-beta, glutamate, glutamine, glutathione-glutamate, glutathione-glycine-cysteine, glycine, GPC-gp, GPC-pcholine1, GPC-pcholine2, lactate, myo-inositol, n-acetylaspartate, NAAG-truncated, phosphocreatine, phosphorylcholine-notrimethyl, phosphorylcholine-trimethyl, phosphorylethanolamine, pyruvate, taurine
 28 Simulations: (not shown)
 
 Metabolite Formatting Information
 ---------------------------------------------------------------------------
 Name=2-hydroxyglutarate Abbr=2HG Scale=1.0 Shift=0.0 PPM Start=-7.81 PPM End=7.81
 Name=alanine Abbr=Ala Scale=1.0 Shift=0.0 PPM Start=-7.81 PPM End=7.81
 Name=choline-methylene Abbr=choline-methylene Scale=1.0 Shift=0.0 PPM Start=-7.81 PPM End=7.81
 Name=choline-trimethyl Abbr=choline-trimethyl Scale=1.0 Shift=0.0 PPM Start=-7.81 PPM End=7.81
 Name=choline-truncated Abbr=choline-truncated Scale=1.0 Shift=0.0 PPM Start=-7.81 PPM End=7.81
 Name=creatine Abbr=Cr Scale=1.0 Shift=0.0 PPM Start=-7.81 PPM End=7.81
 Name=ethanolamine Abbr=ETA Scale=1.0 Shift=0.0 PPM Start=-7.81 PPM End=7.81
 Name=gaba Abbr=GABA Scale=1.0 Shift=0.0 PPM Start=-7.81 PPM End=7.81
 Name=glutamate Abbr=Glu Scale=1.0 Shift=0.0 PPM Start=-7.81 PPM End=7.81
 Name=glutamine Abbr=Gln Scale=1.0 Shift=0.0 PPM Start=-7.81 PPM End=7.81
 Name=glutathione-glutamate Abbr=glutathione-glutamate Scale=1.0 Shift=0.0 PPM Start=-7.81 PPM End=7.81
 Name=glutathione-glycine-cysteine Abbr=GSH Scale=1.0 Shift=0.0 PPM Start=-7.81 PPM End=7.81
 Name=glycine Abbr=Gly Scale=1.0 Shift=0.0 PPM Start=-7.81 PPM End=7.81
 Name=GPC-gp Abbr=GPC-gp Scale=1.0 Shift=0.0 PPM Start=-7.81 PPM End=7.81
 Name=GPC-pcholine1 Abbr=GPC-pcholine1 Scale=1.0 Shift=0.0 PPM Start=-7.81 PPM End=7.81
 Name=GPC-pcholine2 Abbr=GPC-pcholine2 Scale=1.0 Shift=0.0 PPM Start=-7.81 PPM End=7.81
 Name=lactate Abbr=Lac Scale=1.0 Shift=0.0 PPM Start=-7.81 PPM End=7.81
 Name=myo-inositol Abbr=mI Scale=1.0 Shift=0.0 PPM Start=-7.81 PPM End=7.81
 Name=n-acetylaspartate Abbr=NAA Scale=1.0 Shift=0.0 PPM Start=-7.18 PPM End=7.81
 Name=NAAG-truncated Abbr=NAAG Scale=1.0 Shift=0.0 PPM Start=-7.81 PPM End=7.81
 Name=phosphocreatine Abbr=PCr Scale=1.0 Shift=0.0 PPM Start=-7.81 PPM End=7.81
 Name=phosphorylcholine-notrimethyl Abbr=phosphorylcholine-notrimethyl Scale=1.0 Shift=0.0 PPM Start=-7.81 PPM End=7.81
 Name=phosphorylcholine-trimethyl Abbr=phosphorylcholine-trimethyl Scale=1.0 Shift=0.0 PPM Start=-7.81 PPM End=7.81
 Name=phosphorylethanolamine Abbr=PE Scale=1.0 Shift=0.0 PPM Start=-7.81 PPM End=7.81
 Name=pyruvate Abbr=Pyr Scale=1.0 Shift=0.0 PPM Start=-7.51 PPM End=7.81
 Name=taurine Abbr=Tau Scale=1.0 Shift=0.0 PPM Start=7.81 PPM End=7.81
 Name=glucose-beta+glucose-alpha Abbr=Glc Scale=1.0 Shift=0.0 PPM Start=-7.81 PPM End=7.81
   Mixture of [metab*scale] = glucose-beta*1.000000 + glucose-alpha*1.000000
 
 ===========================================================================
 This LCModel format RAW file was created using the 
 Vespa-Simulation spectral simulation program using 
 the following settings and parameters 
 
 Sweep Width = 3500.0 Hz 
 Vector Size = 2048 points 
 Apodization = 15.0 Hz Lorentzian broadening
 B0 Field    = 127.74 MHz 
 Ref Singlet = False
  
 This data has been FFTd to be in the FREQUENCY domain
 
 $NMID ID='2HG'
 FMTDAT='(2E16.6)'
 VOLUME=1.0
 TRAMP=1.0
 $END
    2.771958E+00    1.109394E+01
    2.795652E+00    1.123081E+01
    2.820798E+00    1.137216E+01
    2.847517E+00    1.151825E+01
    2.875943E+00    1.166935E+01
    2.906226E+00    1.182575E+01
    2.938525E+00    1.198777E+01
    2.973020E+00    1.215576E+01
    3.009912E+00    1.233010E+01
    3.049425E+00    1.251120E+01
    3.091803E+00    1.269949E+01
    3.137317E+00    1.289547E+01
    3.186272E+00    1.309968E+01
    3.239008E+00    1.331271E+01
    3.295902E+00    1.353523E+01
    3.357374E+00    1.376799E+01
    3.423903E+00    1.401185E+01
    3.496063E+00    1.426784E+01
    3.574584E+00    1.453713E+01
    3.660442E+00    1.482110E+01
    3.754967E+00    1.512121E+01
    3.859864E+00    1.543884E+01
    3.977083E+00    1.577524E+01
    4.108698E+00    1.613151E+01
    4.256851E+00    1.650872E+01
    4.423655E+00    1.690799E+01
    4.611193E+00    1.733084E+01
    4.821800E+00    1.777946E+01
    5.058596E+00    1.825682E+01
    5.325875E+00    1.876638E+01
    5.629222E+00    1.931188E+01
    5.975586E+00    1.989725E+01
    6.373552E+00    2.052679E+01
    6.833921E+00    2.120539E+01
    7.370822E+00    2.193853E+01
    8.003497E+00    2.273185E+01
    8.758410E+00    2.358921E+01
    9.670247E+00    2.450929E+01
    1.078134E+01    2.548241E+01
    1.214190E+01    2.648828E+01
    1.381249E+01    2.749096E+01
    1.586516E+01    2.842692E+01
    1.837572E+01    2.918512E+01
    2.139685E+01    2.958323E+01
    2.489697E+01    2.935587E+01
    2.866206E+01    2.820400E+01
    3.224078E+01    2.597766E+01
    3.514470E+01    2.291423E+01
    3.728214E+01    1.950502E+01
    3.892521E+01    1.592721E+01
    4.010650E+01    1.200878E+01
    4.056471E+01    7.776541E+00
    4.018979E+01    3.514648E+00
    3.909702E+01   -5.910486E-01
    3.729404E+01   -4.541554E+00
    3.459590E+01   -8.138745E+00
    3.108636E+01   -1.090003E+01
    2.724471E+01   -1.253417E+01
    2.356590E+01   -1.314036E+01
    2.032188E+01   -1.300771E+01
    1.758588E+01   -1.241897E+01
    1.532632E+01   -1.158077E+01
    1.347514E+01   -1.062471E+01
    1.196239E+01   -9.629361E+00
    1.072773E+01   -8.642309E+00
    9.719310E+00   -7.694404E+00
    8.889979E+00   -6.803943E+00
    8.198383E+00   -5.976716E+00
    7.612665E+00   -5.209433E+00
    7.110694E+00   -4.495631E+00
    6.676952E+00   -3.829259E+00
    6.299743E+00   -3.205162E+00
    5.970034E+00   -2.618804E+00
    5.680829E+00   -2.066398E+00
    5.426319E+00   -1.544928E+00
    5.201389E+00   -1.051624E+00
    5.001840E+00   -5.836823E-01
    4.824444E+00   -1.385947E-01
    4.666624E+00    2.856870E-01
    4.526154E+00    6.907155E-01
    4.400757E+00    1.077769E+00
    4.288225E+00    1.448394E+00
    4.186956E+00    1.804259E+00
    4.095771E+00    2.146616E+00
    4.013407E+00    2.476442E+00
    3.938571E+00    2.794836E+00
    3.870221E+00    3.103025E+00
    3.807606E+00    3.402172E+00
    3.750172E+00    3.693291E+00
    3.697472E+00    3.977254E+00
    3.649125E+00    4.254818E+00
    3.604795E+00    4.526653E+00
    3.564170E+00    4.793360E+00
    3.526968E+00    5.055493E+00
    3.492938E+00    5.313570E+00
    3.461858E+00    5.568070E+00
    3.433526E+00    5.819434E+00
    3.407755E+00    6.068081E+00
    3.384377E+00    6.314411E+00
    3.363247E+00    6.558808E+00
    3.344241E+00    6.801630E+00
    3.327240E+00    7.043217E+00
    3.312136E+00    7.283897E+00
    3.298832E+00    7.524000E+00
    3.287258E+00    7.763838E+00
    3.277347E+00    8.003706E+00
    3.269028E+00    8.243891E+00
    3.262242E+00    8.484693E+00
    3.256953E+00    8.726405E+00
    3.253133E+00    8.969298E+00
    3.250740E+00    9.213646E+00
    3.249746E+00    9.459737E+00
    3.250138E+00    9.707859E+00
    3.251915E+00    9.958289E+00
    3.255068E+00    1.021130E+01
    3.259592E+00    1.046720E+01
    3.265494E+00    1.072627E+01
    3.272796E+00    1.098882E+01
    3.281518E+00    1.125514E+01
    3.291682E+00    1.152557E+01
    3.303316E+00    1.180042E+01
    3.316467E+00    1.208003E+01
    3.331183E+00    1.236477E+01
    3.347515E+00    1.265497E+01
    3.365520E+00    1.295104E+01
    3.385273E+00    1.325337E+01
    3.406858E+00    1.356239E+01
    3.430360E+00    1.387852E+01
    3.455880E+00    1.420223E+01
    3.483532E+00    1.453402E+01
    3.513441E+00    1.487442E+01
    3.545747E+00    1.522396E+01
    3.580607E+00    1.558324E+01
    3.618195E+00    1.595289E+01
    3.658704E+00    1.633357E+01
    3.702348E+00    1.672602E+01
    3.749373E+00    1.713100E+01
    3.800052E+00    1.754934E+01
    3.854687E+00    1.798194E+01
    3.913614E+00    1.842978E+01
    3.977223E+00    1.889390E+01
    4.045950E+00    1.937544E+01
    4.120284E+00    1.987566E+01
    4.200783E+00    2.039590E+01
    4.288095E+00    2.093766E+01
    4.382965E+00    2.150257E+01
    4.486259E+00    2.209244E+01
    4.598999E+00    2.270924E+01
    4.722412E+00    2.335515E+01
    4.857996E+00    2.403252E+01
    5.007559E+00    2.474383E+01
    5.173203E+00    2.549154E+01
    5.357107E+00    2.627807E+01
    5.561192E+00    2.710600E+01
    5.787208E+00    2.797881E+01
    6.037444E+00    2.890115E+01
    6.315215E+00    2.987854E+01
    6.625001E+00    3.091726E+01
    6.972725E+00    3.202424E+01
    7.365897E+00    3.320689E+01
    7.813839E+00    3.447322E+01
    8.328333E+00    3.583179E+01
    8.924288E+00    3.729104E+01
    9.619680E+00    3.885849E+01
    1.043520E+01    4.054053E+01
    1.139425E+01    4.234244E+01
    1.252241E+01    4.426871E+01
    1.384667E+01    4.632601E+01
