 Vespa-Simulation Mixed Metabolite Output
 This file was generated by Vespa-Simulation. You can learn about and download Vespa here:
https://github.com/vespa-mrs/vespa/tree/main/vespa

 
 Output Path/Filename = /home/stud/casperc/bhome/Project1(DeepFit)/DeepFit-data-generation/Initial_spectra_linewidth_10_TE30_1024p
 Output Loop Values = (1,1,1)  ( Loop 1 = 15, Loop 2 = 15, Loop3 Inactive )
 Output Comment
 ---------------------------------------------------------------------------
 
 
 Experiment Information
 ---------------------------------------------------------------------------
 --- Experiment 32780d98-dc11-42ab-ab27-92876fb0934a ---
 Name: PRESS_3T_30TE
 Public: False
 Created: 2023-12-19T15:15:29
 Comment (abbr.): LC-Model basis set clone +2-HG
 PI: Casper Cappelen
 b0: 127.740000
 Peak Search PPM low/high: 0.000000 / 10.000000
 Blend tol. PPM/phase: 0.001500 / 50.000000
 Pulse seq.: 43be13ae-de9a-40a1-9a2d-c872d8bjs100 (PRESS Ideal)
 0 User static parameters: 
 19 Metabolites: 2-hydroxyglutarate, GPC-gp, NAAG-truncated, alanine, aspartate, creatine, gaba, glucose-alpha, glucose-beta, glutamate, glutamine, glutathione-glutamate, lactate, myo-inositol, n-acetylaspartate, phosphocreatine, phosphorylcholine-notrimethyl, scyllo-inositol, taurine
 19 Simulations: (not shown)
 
 Metabolite Formatting Information
 ---------------------------------------------------------------------------
 Name=GPC-gp Abbr=GPC Scale=1.0 Shift=0.0 PPM Start=0.0 PPM End=4.5
 Name=NAAG-truncated Abbr=NAAG Scale=1.0 Shift=0.0 PPM Start=0.0 PPM End=4.5
 Name=alanine Abbr=Ala Scale=1.0 Shift=0.0 PPM Start=0.0 PPM End=4.5
 Name=aspartate Abbr=Asp Scale=1.0 Shift=0.0 PPM Start=0.0 PPM End=4.5
 Name=creatine Abbr=Cr Scale=1.0 Shift=0.1 PPM Start=0.0 PPM End=4.5
 Name=gaba Abbr=GABA Scale=1.0 Shift=0.0 PPM Start=0.0 PPM End=4.5
 Name=glutamate Abbr=Glu Scale=1.0 Shift=0.0 PPM Start=0.0 PPM End=4.5
 Name=glutamine Abbr=Gln Scale=1.0 Shift=0.0 PPM Start=0.0 PPM End=4.5
 Name=glutathione-glutamate Abbr=GSH Scale=1.0 Shift=0.0 PPM Start=0.0 PPM End=4.5
 Name=lactate Abbr=Lac Scale=1.0 Shift=0.0 PPM Start=0.0 PPM End=4.5
 Name=myo-inositol Abbr=mI Scale=1.0 Shift=0.0 PPM Start=0.0 PPM End=4.5
 Name=n-acetylaspartate Abbr=NAA Scale=1.0 Shift=0.0 PPM Start=0.0 PPM End=4.5
 Name=phosphocreatine Abbr=PCr Scale=1.0 Shift=0.0 PPM Start=0.0 PPM End=4.5
 Name=phosphorylcholine-notrimethyl Abbr=PCho Scale=1.0 Shift=0.0 PPM Start=0.0 PPM End=4.5
 Name=taurine Abbr=Tau Scale=1.0 Shift=0.0 PPM Start=0.0 PPM End=4.5
 Name=glucose-alpha+glucose-beta Abbr=Glc Scale=1.0 Shift=0.0 PPM Start=0.0 PPM End=4.5
   Mixture of [metab*scale] = glucose-alpha*1.000000 + glucose-beta*1.000000
 
 ===========================================================================
 This LCModel format RAW file was created using the 
 Vespa-Simulation spectral simulation program using 
 the following settings and parameters 
 
 Sweep Width = 574.83 Hz 
 Vector Size = 1024 points 
 Apodization = 10.0 Hz Gaussian broadening
 B0 Field    = 127.74 MHz 
 Ref Singlet = False
  
 $NMID ID='Ala'
 FMTDAT='(2E16.6)'
 VOLUME=1.0
 TRAMP=1.0
 $END
    2.951029E+00   -1.284056E-02
   -3.921827E-01   -1.789716E+00
   -2.460193E+00    1.125545E+00
    9.571064E-01    1.467458E+00
    1.601410E+00   -1.818698E+00
   -1.342181E+00   -9.543897E-01
   -6.415767E-01    2.020582E+00
    1.472344E+00    3.478007E-01
   -1.842627E-01   -1.800610E+00
   -1.332464E+00    2.201079E-01
    7.311945E-01    1.315820E+00
    9.825978E-01   -6.255301E-01
   -9.591669E-01   -7.457438E-01
   -5.401058E-01    7.982090E-01
    9.136922E-01    2.409160E-01
    1.361960E-01   -7.446485E-01
   -6.909192E-01    1.045353E-01
    1.312451E-01    5.384202E-01
    4.024751E-01   -2.589539E-01
   -2.263571E-01   -2.848920E-01
   -1.470702E-01    2.451524E-01
    1.757350E-01    7.954637E-02
   -9.394879E-03   -1.239203E-01
   -4.586505E-02    2.153852E-02
    4.438823E-02   -2.779070E-02
   -8.792229E-02   -1.031868E-02
    2.205203E-02    1.406787E-01
    1.670733E-01   -8.262795E-02
   -1.401037E-01   -1.729267E-01
   -1.631227E-01    2.065505E-01
    2.514124E-01    1.194271E-01
    7.908945E-02   -3.093030E-01
   -3.108071E-01   -7.048742E-03
    5.717805E-02    3.517781E-01
    2.998250E-01   -1.211407E-01
   -2.039424E-01   -3.165774E-01
   -2.275245E-01    2.248329E-01
    3.183391E-01    2.107417E-01
    1.205320E-01   -2.799732E-01
   -3.687842E-01   -6.219293E-02
   -9.107232E-03    2.823557E-01
    3.439087E-01   -8.963841E-02
   -8.370941E-02   -2.425980E-01
   -2.550544E-01    2.067737E-01
    1.462536E-01    1.775195E-01
    1.310268E-01   -2.646290E-01
   -1.764480E-01   -1.031287E-01
   -7.075720E-03    2.586222E-01
    1.777542E-01    3.156493E-02
   -8.736278E-02   -2.029419E-01
   -1.559497E-01    2.880044E-02
    1.370603E-01    1.227509E-01
    1.179041E-01   -7.226971E-02
   -1.428710E-01   -4.388235E-02
   -7.152617E-02    9.555875E-02
    1.174593E-01   -1.549236E-02
    2.538060E-02   -9.842753E-02
   -7.793908E-02    4.832497E-02
    1.264576E-02    8.421278E-02
    3.913544E-02   -5.728119E-02
   -3.721819E-02   -5.931518E-02
   -9.847183E-03    5.041124E-02
    4.686032E-02    3.143002E-02
   -7.455102E-03   -3.655160E-02
   -4.389997E-02   -7.295242E-03
    1.462880E-02    2.229280E-02
    3.312067E-02   -9.030371E-03
   -1.526503E-02   -1.104637E-02
   -1.979973E-02    1.668258E-02
    1.272921E-02    3.632633E-03
    8.044855E-03   -1.730735E-02
   -9.279946E-03    5.430272E-04
    6.324378E-06    1.375029E-02
    6.060414E-03   -2.483460E-03
   -4.078099E-03   -8.781204E-03
   -3.479549E-03    3.056791E-03
    5.078206E-03    4.314511E-03
    1.598622E-03   -2.859946E-03
   -4.313538E-03   -1.222835E-03
   -3.598231E-04    2.276841E-03
    2.917991E-03   -4.322561E-04
   -3.346616E-04   -1.566909E-03
   -1.603366E-03    1.016035E-03
    6.094216E-04    9.080778E-04
    6.687524E-04   -9.901050E-04
   -6.069154E-04   -4.041892E-04
   -1.374044E-04    7.225137E-04
    4.646615E-04    8.752264E-05
   -9.354900E-05   -4.323018E-04
   -2.896077E-04    6.534152E-05
    1.486595E-04    2.124355E-04
    1.446109E-04   -1.065258E-04
   -1.246277E-04   -7.881840E-05
   -5.160733E-05    9.026449E-05
    7.954349E-05    1.327713E-05
    5.655982E-06   -5.667311E-05
   -4.051061E-05    9.953800E-06
    9.260944E-06    2.738384E-05
    1.552797E-05   -1.219501E-05
   -9.003478E-06   -9.340183E-06
   -3.278096E-06    7.181556E-06
    4.275395E-06    1.320575E-06
   -6.663597E-07   -1.934260E-06
   -2.622227E-07    5.938248E-07
    5.995003E-07   -1.097203E-06
   -1.624683E-06    5.475267E-08
    5.735153E-07    1.927484E-06
    1.785695E-06   -1.112442E-06
   -1.439243E-06   -1.469994E-06
   -1.094383E-06    1.689917E-06
    1.645383E-06    6.270734E-07
    2.597263E-07   -1.672650E-06
   -1.366724E-06    6.346850E-08
    3.419923E-07    1.274825E-06
    9.021446E-07   -4.285596E-07
   -6.134653E-07   -7.603329E-07
   -4.711670E-07    5.146805E-07
    6.183162E-07    3.159135E-07
    1.686542E-07   -4.411102E-07
   -4.762103E-07   -2.347491E-08
    7.305094E-10    3.124057E-07
    2.950929E-07   -1.169663E-07
   -7.237526E-08   -1.900689E-07
   -1.420153E-07    1.482870E-07
    8.659608E-08    9.819755E-08
    4.212852E-08   -1.221357E-07
   -7.380871E-08   -3.915453E-08
    7.936828E-09    7.875447E-08
    5.248091E-08    6.430599E-09
   -2.398545E-08   -4.070446E-08
   -3.208379E-08    8.274211E-09
    2.255562E-08    1.571379E-08
    1.649117E-08   -1.219871E-08
   -1.534126E-08   -2.835979E-09
   -6.419173E-09    1.074081E-08
    8.402550E-09   -2.025741E-09
    9.974959E-10   -7.436543E-09
   -3.734051E-09    2.821545E-09
    1.223933E-09    4.241257E-09
    1.242906E-09   -2.148007E-09
   -1.644428E-09   -1.941808E-09
   -1.796678E-10    1.279844E-09
    1.298593E-09    6.122917E-10
   -1.510182E-10   -6.464135E-10
   -7.923829E-10   -7.058873E-12
    1.858130E-10    2.825558E-10
    3.895290E-10   -1.765450E-10
   -1.367417E-10   -1.042714E-10
   -1.470558E-10    1.711603E-10
    8.319459E-11    2.790200E-11
    3.156422E-11   -1.120385E-10
   -4.504506E-11    1.170789E-13
    9.296900E-12    5.796042E-11
    2.193169E-11   -7.632319E-12
   -1.609647E-11   -2.405942E-11
   -9.301875E-12    7.517098E-12
    1.186981E-11    7.352807E-12
    3.096365E-12   -5.269196E-12
   -6.531566E-12   -8.764006E-13
   -4.789278E-13    3.041205E-12
    2.924857E-12   -8.470750E-13
   -3.503406E-13   -1.479563E-12
   -1.062384E-12    8.777409E-13
    4.330791E-13    5.914872E-13
    2.811788E-13   -5.424729E-13
   -2.965402E-13   -1.741007E-13
   -2.169748E-14    2.644771E-13
    1.553609E-13    1.830371E-14
   -3.438584E-14   -1.073690E-13
   -6.570577E-14    2.033656E-14
    3.008105E-14    3.573812E-14
    2.187031E-14   -1.918512E-14
   -1.663434E-14   -8.675551E-15
   -4.890930E-15    1.068761E-14
    7.196540E-15    6.163133E-16
    2.226890E-17   -4.479304E-15
   -2.478529E-15    8.227879E-16
    6.489438E-16    1.430929E-15
    6.219148E-16   -5.796949E-16
   -3.683842E-16   -3.054996E-16
   -6.981520E-17    2.121531E-16
    1.035157E-16    1.385746E-17
   -2.248961E-17   -2.361327E-17
    8.635466E-18    1.422327E-17
    6.221544E-18   -2.949544E-17
   -2.943847E-17    4.571126E-18
    1.153165E-17    2.665370E-17
    1.956307E-17   -1.490260E-17
   -1.512025E-17   -1.287284E-17
   -7.435269E-18    1.421595E-17
    1.125045E-17    3.308648E-18
    5.451648E-19   -9.341034E-18
   -6.328691E-18    7.327863E-19
    1.804617E-18    4.763019E-18
    2.868917E-18   -1.584390E-18
   -1.862088E-18   -1.868658E-18
   -1.028978E-18    1.255009E-18
    1.227067E-18    4.666611E-19
    2.422003E-19   -7.436844E-19
   -6.299112E-19    3.985135E-20
    1.914859E-20    3.691621E-19
    2.592166E-19   -1.389232E-19
   -6.970156E-20   -1.574807E-19
   -8.036882E-20    1.060665E-19
    5.597265E-20    5.617948E-20
    1.265829E-20   -5.716692E-20
   -3.305050E-20   -1.457021E-20
    5.259858E-21    2.451653E-20
