 Vespa-Simulation Mixed Metabolite Output
 This file was generated by Vespa-Simulation. You can learn about and download Vespa here:
https://github.com/vespa-mrs/vespa/tree/main/vespa

 
 Output Path/Filename = /home/stud/casperc/bhome/Project1(DeepFit)/DeepFit-data-generation/Initial_spectra_linewidth_10_TE30_1024p
 Output Loop Values = (1,1,1)  ( Loop 1 = 15, Loop 2 = 15, Loop3 Inactive )
 Output Comment
 ---------------------------------------------------------------------------
 
 
 Experiment Information
 ---------------------------------------------------------------------------
 --- Experiment 32780d98-dc11-42ab-ab27-92876fb0934a ---
 Name: PRESS_3T_30TE
 Public: False
 Created: 2023-12-19T15:15:29
 Comment (abbr.): LC-Model basis set clone +2-HG
 PI: Casper Cappelen
 b0: 127.740000
 Peak Search PPM low/high: 0.000000 / 10.000000
 Blend tol. PPM/phase: 0.001500 / 50.000000
 Pulse seq.: 43be13ae-de9a-40a1-9a2d-c872d8bjs100 (PRESS Ideal)
 0 User static parameters: 
 19 Metabolites: 2-hydroxyglutarate, GPC-gp, NAAG-truncated, alanine, aspartate, creatine, gaba, glucose-alpha, glucose-beta, glutamate, glutamine, glutathione-glutamate, lactate, myo-inositol, n-acetylaspartate, phosphocreatine, phosphorylcholine-notrimethyl, scyllo-inositol, taurine
 19 Simulations: (not shown)
 
 Metabolite Formatting Information
 ---------------------------------------------------------------------------
 Name=GPC-gp Abbr=GPC Scale=1.0 Shift=0.0 PPM Start=0.0 PPM End=4.5
 Name=NAAG-truncated Abbr=NAAG Scale=1.0 Shift=0.0 PPM Start=0.0 PPM End=4.5
 Name=alanine Abbr=Ala Scale=1.0 Shift=0.0 PPM Start=0.0 PPM End=4.5
 Name=aspartate Abbr=Asp Scale=1.0 Shift=0.0 PPM Start=0.0 PPM End=4.5
 Name=creatine Abbr=Cr Scale=1.0 Shift=0.1 PPM Start=0.0 PPM End=4.5
 Name=gaba Abbr=GABA Scale=1.0 Shift=0.0 PPM Start=0.0 PPM End=4.5
 Name=glutamate Abbr=Glu Scale=1.0 Shift=0.0 PPM Start=0.0 PPM End=4.5
 Name=glutamine Abbr=Gln Scale=1.0 Shift=0.0 PPM Start=0.0 PPM End=4.5
 Name=glutathione-glutamate Abbr=GSH Scale=1.0 Shift=0.0 PPM Start=0.0 PPM End=4.5
 Name=lactate Abbr=Lac Scale=1.0 Shift=0.0 PPM Start=0.0 PPM End=4.5
 Name=myo-inositol Abbr=mI Scale=1.0 Shift=0.0 PPM Start=0.0 PPM End=4.5
 Name=n-acetylaspartate Abbr=NAA Scale=1.0 Shift=0.0 PPM Start=0.0 PPM End=4.5
 Name=phosphocreatine Abbr=PCr Scale=1.0 Shift=0.0 PPM Start=0.0 PPM End=4.5
 Name=phosphorylcholine-notrimethyl Abbr=PCho Scale=1.0 Shift=0.0 PPM Start=0.0 PPM End=4.5
 Name=taurine Abbr=Tau Scale=1.0 Shift=0.0 PPM Start=0.0 PPM End=4.5
 Name=glucose-alpha+glucose-beta Abbr=Glc Scale=1.0 Shift=0.0 PPM Start=0.0 PPM End=4.5
   Mixture of [metab*scale] = glucose-alpha*1.000000 + glucose-beta*1.000000
 
 ===========================================================================
 This LCModel format RAW file was created using the 
 Vespa-Simulation spectral simulation program using 
 the following settings and parameters 
 
 Sweep Width = 574.83 Hz 
 Vector Size = 1024 points 
 Apodization = 10.0 Hz Gaussian broadening
 B0 Field    = 127.74 MHz 
 Ref Singlet = False
  
 This data has been FFTd to be in the FREQUENCY domain
 
 $NMID ID='Ala'
 FMTDAT='(2E16.6)'
 VOLUME=1.0
 TRAMP=1.0
 $END
    1.497359E+00   -6.324402E-01
    1.497443E+00   -6.239462E-01
    1.497530E+00   -6.154642E-01
    1.497622E+00   -6.069937E-01
    1.497717E+00   -5.985341E-01
    1.497816E+00   -5.900849E-01
    1.497919E+00   -5.816455E-01
    1.498026E+00   -5.732152E-01
    1.498136E+00   -5.647934E-01
    1.498249E+00   -5.563792E-01
    1.498366E+00   -5.479718E-01
    1.498486E+00   -5.395705E-01
    1.498609E+00   -5.311742E-01
    1.498736E+00   -5.227823E-01
    1.498866E+00   -5.143937E-01
    1.499000E+00   -5.060076E-01
    1.499139E+00   -4.976234E-01
    1.499282E+00   -4.892402E-01
    1.499429E+00   -4.808574E-01
    1.499582E+00   -4.724743E-01
    1.499740E+00   -4.640905E-01
    1.499903E+00   -4.557055E-01
    1.500073E+00   -4.473186E-01
    1.500248E+00   -4.389296E-01
    1.500430E+00   -4.305379E-01
    1.500617E+00   -4.221431E-01
    1.500811E+00   -4.137447E-01
    1.501010E+00   -4.053421E-01
    1.501215E+00   -3.969347E-01
    1.501426E+00   -3.885218E-01
    1.501642E+00   -3.801027E-01
    1.501864E+00   -3.716764E-01
    1.502091E+00   -3.632419E-01
    1.502323E+00   -3.547983E-01
    1.502561E+00   -3.463446E-01
    1.502804E+00   -3.378795E-01
    1.503053E+00   -3.294021E-01
    1.503308E+00   -3.209115E-01
    1.503570E+00   -3.124065E-01
    1.503839E+00   -3.038866E-01
    1.504116E+00   -2.953508E-01
    1.504400E+00   -2.867986E-01
    1.504693E+00   -2.782294E-01
    1.504994E+00   -2.696426E-01
    1.505304E+00   -2.610376E-01
    1.505623E+00   -2.524138E-01
    1.505951E+00   -2.437706E-01
    1.506287E+00   -2.351071E-01
    1.506631E+00   -2.264225E-01
    1.506984E+00   -2.177157E-01
    1.507345E+00   -2.089857E-01
    1.507715E+00   -2.002310E-01
    1.508092E+00   -1.914505E-01
    1.508479E+00   -1.826428E-01
    1.508874E+00   -1.738066E-01
    1.509278E+00   -1.649404E-01
    1.509693E+00   -1.560430E-01
    1.510117E+00   -1.471131E-01
    1.510553E+00   -1.381495E-01
    1.510999E+00   -1.291511E-01
    1.511458E+00   -1.201168E-01
    1.511929E+00   -1.110455E-01
    1.512413E+00   -1.019362E-01
    1.512911E+00   -9.278774E-02
    1.513422E+00   -8.359915E-02
    1.513947E+00   -7.436930E-02
    1.514487E+00   -6.509705E-02
    1.515042E+00   -5.578118E-02
    1.515611E+00   -4.642041E-02
    1.516195E+00   -3.701341E-02
    1.516795E+00   -2.755873E-02
    1.517411E+00   -1.805484E-02
    1.518042E+00   -8.500136E-03
    1.518689E+00    1.107112E-03
    1.519353E+00    1.076872E-02
    1.520034E+00    2.048659E-02
    1.520731E+00    3.026274E-02
    1.521447E+00    4.009925E-02
    1.522181E+00    4.999825E-02
    1.522933E+00    5.996193E-02
    1.523706E+00    6.999250E-02
    1.524500E+00    8.009217E-02
    1.525315E+00    9.026314E-02
    1.526154E+00    1.005076E-01
    1.527016E+00    1.108276E-01
    1.527904E+00    1.212255E-01
    1.528818E+00    1.317031E-01
    1.529759E+00    1.422628E-01
    1.530728E+00    1.529067E-01
    1.531727E+00    1.636371E-01
    1.532756E+00    1.744563E-01
    1.533816E+00    1.853668E-01
    1.534908E+00    1.963713E-01
    1.536033E+00    2.074725E-01
    1.537192E+00    2.186735E-01
    1.538386E+00    2.299774E-01
    1.539616E+00    2.413874E-01
    1.540885E+00    2.529070E-01
    1.542192E+00    2.645397E-01
    1.543540E+00    2.762891E-01
    1.544930E+00    2.881589E-01
    1.546364E+00    3.001531E-01
    1.547844E+00    3.122756E-01
    1.549372E+00    3.245304E-01
    1.550950E+00    3.369219E-01
    1.552580E+00    3.494542E-01
    1.554265E+00    3.621320E-01
    1.556006E+00    3.749599E-01
    1.557806E+00    3.879429E-01
    1.559667E+00    4.010860E-01
    1.561593E+00    4.143946E-01
    1.563587E+00    4.278742E-01
    1.565651E+00    4.415305E-01
    1.567789E+00    4.553694E-01
    1.570004E+00    4.693972E-01
    1.572301E+00    4.836203E-01
    1.574682E+00    4.980453E-01
    1.577153E+00    5.126793E-01
    1.579718E+00    5.275293E-01
    1.582380E+00    5.426030E-01
    1.585146E+00    5.579083E-01
    1.588020E+00    5.734534E-01
    1.591009E+00    5.892470E-01
    1.594117E+00    6.052981E-01
    1.597352E+00    6.216162E-01
    1.600720E+00    6.382112E-01
    1.604228E+00    6.550935E-01
    1.607885E+00    6.722740E-01
    1.611698E+00    6.897641E-01
    1.615676E+00    7.075758E-01
    1.619830E+00    7.257219E-01
    1.624169E+00    7.442155E-01
    1.628703E+00    7.630709E-01
    1.633447E+00    7.823026E-01
    1.638411E+00    8.019264E-01
    1.643611E+00    8.219587E-01
    1.649062E+00    8.424166E-01
    1.654780E+00    8.633184E-01
    1.660783E+00    8.846833E-01
    1.667092E+00    9.065313E-01
    1.673727E+00    9.288837E-01
    1.680713E+00    9.517627E-01
    1.688074E+00    9.751921E-01
    1.695838E+00    9.991967E-01
    1.704037E+00    1.023803E+00
    1.712704E+00    1.049039E+00
    1.721876E+00    1.074935E+00
    1.731596E+00    1.101521E+00
    1.741908E+00    1.128832E+00
    1.752865E+00    1.156902E+00
    1.764525E+00    1.185770E+00
    1.776953E+00    1.215474E+00
    1.790222E+00    1.246055E+00
    1.804417E+00    1.277557E+00
    1.819634E+00    1.310023E+00
    1.835983E+00    1.343498E+00
    1.853592E+00    1.378026E+00
    1.872608E+00    1.413648E+00
    1.893202E+00    1.450400E+00
    1.915574E+00    1.488308E+00
    1.939955E+00    1.527383E+00
    1.966612E+00    1.567610E+00
    1.995853E+00    1.608940E+00
    2.028021E+00    1.651273E+00
    2.063501E+00    1.694442E+00
    2.102704E+00    1.738189E+00
    2.146052E+00    1.782145E+00
    2.193956E+00    1.825803E+00
    2.246776E+00    1.868503E+00
    2.304770E+00    1.909414E+00
    2.368029E+00    1.947542E+00
    2.436405E+00    1.981746E+00
    2.509432E+00    2.010793E+00
    2.586250E+00    2.033444E+00
    2.665551E+00    2.048573E+00
    2.745557E+00    2.055326E+00
    2.824051E+00    2.053315E+00
    2.898475E+00    2.042813E+00
    2.966119E+00    2.024942E+00
    3.024393E+00    2.001822E+00
    3.071173E+00    1.976630E+00
    3.105220E+00    1.953540E+00
    3.126600E+00    1.937508E+00
    3.137069E+00    1.933889E+00
    3.140352E+00    1.947878E+00
    3.142232E+00    1.983808E+00
    3.150393E+00    2.044376E+00
    3.173972E+00    2.129868E+00
    3.222799E+00    2.237511E+00
    3.306366E+00    2.361067E+00
    3.432603E+00    2.490785E+00
    3.606584E+00    2.613797E+00
    3.829337E+00    2.714998E+00
    4.096935E+00    2.778380E+00
    4.400055E+00    2.788736E+00
    4.724142E+00    2.733540E+00
    5.050252E+00    2.604812E+00
    5.356584E+00    2.400679E+00
    5.620571E+00    2.126399E+00
    5.821339E+00    1.794632E+00
    5.942258E+00    1.424823E+00
    5.973236E+00    1.041686E+00
    5.912446E+00    6.728793E-01
    5.767191E+00    3.461200E-01
    5.553719E+00    8.604857E-02
    5.295939E+00   -8.875246E-02
