 Vespa-Simulation Mixed Metabolite Output
 This file was generated by Vespa-Simulation. You can learn about and download Vespa here:
https://github.com/vespa-mrs/vespa/tree/main/vespa

 
 Output Path/Filename = /home/stud/casperc/bhome/Project1(DeepFit)/DeepFit-data-generation/Initial_spectra_linewidth_10_TE30_1024p
 Output Loop Values = (1,1,1)  ( Loop 1 = 15, Loop 2 = 15, Loop3 Inactive )
 Output Comment
 ---------------------------------------------------------------------------
 
 
 Experiment Information
 ---------------------------------------------------------------------------
 --- Experiment 32780d98-dc11-42ab-ab27-92876fb0934a ---
 Name: PRESS_3T_30TE
 Public: False
 Created: 2023-12-19T15:15:29
 Comment (abbr.): LC-Model basis set clone +2-HG
 PI: Casper Cappelen
 b0: 127.740000
 Peak Search PPM low/high: 0.000000 / 10.000000
 Blend tol. PPM/phase: 0.001500 / 50.000000
 Pulse seq.: 43be13ae-de9a-40a1-9a2d-c872d8bjs100 (PRESS Ideal)
 0 User static parameters: 
 19 Metabolites: 2-hydroxyglutarate, GPC-gp, NAAG-truncated, alanine, aspartate, creatine, gaba, glucose-alpha, glucose-beta, glutamate, glutamine, glutathione-glutamate, lactate, myo-inositol, n-acetylaspartate, phosphocreatine, phosphorylcholine-notrimethyl, scyllo-inositol, taurine
 19 Simulations: (not shown)
 
 Metabolite Formatting Information
 ---------------------------------------------------------------------------
 Name=GPC-gp Abbr=GPC Scale=1.0 Shift=0.0 PPM Start=0.0 PPM End=4.5
 Name=NAAG-truncated Abbr=NAAG Scale=1.0 Shift=0.0 PPM Start=0.0 PPM End=4.5
 Name=alanine Abbr=Ala Scale=1.0 Shift=0.0 PPM Start=0.0 PPM End=4.5
 Name=aspartate Abbr=Asp Scale=1.0 Shift=0.0 PPM Start=0.0 PPM End=4.5
 Name=creatine Abbr=Cr Scale=1.0 Shift=0.1 PPM Start=0.0 PPM End=4.5
 Name=gaba Abbr=GABA Scale=1.0 Shift=0.0 PPM Start=0.0 PPM End=4.5
 Name=glutamate Abbr=Glu Scale=1.0 Shift=0.0 PPM Start=0.0 PPM End=4.5
 Name=glutamine Abbr=Gln Scale=1.0 Shift=0.0 PPM Start=0.0 PPM End=4.5
 Name=glutathione-glutamate Abbr=GSH Scale=1.0 Shift=0.0 PPM Start=0.0 PPM End=4.5
 Name=lactate Abbr=Lac Scale=1.0 Shift=0.0 PPM Start=0.0 PPM End=4.5
 Name=myo-inositol Abbr=mI Scale=1.0 Shift=0.0 PPM Start=0.0 PPM End=4.5
 Name=n-acetylaspartate Abbr=NAA Scale=1.0 Shift=0.0 PPM Start=0.0 PPM End=4.5
 Name=phosphocreatine Abbr=PCr Scale=1.0 Shift=0.0 PPM Start=0.0 PPM End=4.5
 Name=phosphorylcholine-notrimethyl Abbr=PCho Scale=1.0 Shift=0.0 PPM Start=0.0 PPM End=4.5
 Name=taurine Abbr=Tau Scale=1.0 Shift=0.0 PPM Start=0.0 PPM End=4.5
 Name=glucose-alpha+glucose-beta Abbr=Glc Scale=1.0 Shift=0.0 PPM Start=0.0 PPM End=4.5
   Mixture of [metab*scale] = glucose-alpha*1.000000 + glucose-beta*1.000000
 
 ===========================================================================
 This LCModel format RAW file was created using the 
 Vespa-Simulation spectral simulation program using 
 the following settings and parameters 
 
 Sweep Width = 574.83 Hz 
 Vector Size = 1024 points 
 Apodization = 10.0 Hz Gaussian broadening
 B0 Field    = 127.74 MHz 
 Ref Singlet = False
  
 $NMID ID='Asp'
 FMTDAT='(2E16.6)'
 VOLUME=1.0
 TRAMP=1.0
 $END
    2.208519E+00    6.775221E-02
   -1.080650E+00    1.135941E+00
    5.651111E-01   -4.273533E-01
   -1.134959E+00    9.482615E-01
   -1.217488E-02   -1.699898E+00
    7.627343E-01    6.393946E-01
   -1.137665E-01   -3.923946E-01
    5.863358E-01    8.107423E-01
   -1.004020E+00    6.785592E-02
    2.078336E-01   -4.019696E-01
   -2.099655E-01   -9.661120E-02
    5.080230E-01   -3.015392E-01
    5.826175E-02    5.211404E-01
   -1.598203E-01   -6.341132E-02
   -1.015796E-01    1.790804E-01
   -2.035442E-01   -3.285714E-01
    3.188076E-01    3.338434E-03
   -1.282042E-01    5.087413E-02
    1.965755E-01   -5.885844E-03
   -1.986511E-01    1.791913E-01
    2.905560E-02   -2.259215E-01
    5.440372E-02    1.638800E-01
   -1.069803E-01   -1.130786E-01
    1.311626E-01    3.325449E-02
   -1.229712E-01    3.456356E-02
    8.522126E-02   -1.263120E-01
    4.830467E-02    1.635000E-01
   -1.298920E-01   -7.704145E-02
    1.305275E-01    3.652898E-02
   -1.943478E-01    8.384009E-03
    1.823949E-01   -1.509667E-01
   -5.839182E-02    1.959559E-01
    1.594950E-02   -1.651111E-01
    2.595957E-02    1.990217E-01
   -1.336027E-01   -1.651236E-01
    1.493529E-01    6.364475E-02
   -1.206564E-01   -3.744123E-02
    1.418950E-01    8.229826E-03
   -1.172468E-01    5.899039E-02
    5.932220E-02   -6.750580E-02
   -4.595592E-02    5.684338E-02
    2.760879E-02   -7.230930E-02
    9.064753E-03    6.485839E-02
   -2.309211E-02   -4.057292E-02
    2.557736E-02    2.685643E-02
   -3.038935E-02   -1.575059E-02
    3.406973E-02   -3.477174E-04
   -2.517911E-02    2.065315E-02
    4.816893E-03   -2.427758E-02
   -8.907819E-04    1.726554E-02
   -3.298224E-03   -2.667994E-02
    2.581133E-02    2.188013E-02
   -2.491494E-02    8.143563E-04
    1.363579E-02    2.429121E-03
   -2.687361E-02   -2.398917E-03
    2.328129E-02   -1.867473E-02
   -5.229174E-03    1.515302E-02
    1.284554E-02   -7.797550E-03
   -1.212582E-02    2.292775E-02
   -5.391498E-03   -2.072510E-02
    2.459097E-03    9.963183E-03
   -1.114780E-03   -1.807570E-02
    1.499651E-02    1.558145E-02
   -1.378683E-02   -2.666716E-03
    8.647455E-03    4.260259E-03
   -1.486026E-02   -2.277405E-03
    1.167169E-02   -7.808119E-03
   -3.495435E-03    6.721199E-03
    4.555443E-03   -4.565006E-03
   -2.239696E-03    8.442898E-03
   -3.550266E-03   -5.778496E-03
    2.319032E-03    1.531658E-03
   -1.497311E-03   -2.554022E-03
    3.605163E-03    1.091922E-03
   -1.939334E-03    1.541525E-03
    2.286898E-04   -4.936805E-04
   -1.071036E-03    2.900875E-04
    3.550543E-04   -1.313947E-03
    6.181146E-04    5.008587E-04
   -2.968482E-05   -4.283113E-06
    9.052368E-05    4.648091E-04
   -5.203904E-04   -1.250442E-04
    2.069785E-04   -1.993607E-04
   -1.023003E-04    1.286716E-05
    2.279505E-04   -1.156517E-04
   -5.856945E-05    2.480286E-04
   -5.954506E-05   -1.505098E-04
    6.138506E-05    1.089923E-04
   -1.077161E-04   -7.659267E-05
    1.132358E-04    4.158137E-06
   -8.689273E-05    4.195842E-05
    4.388061E-05   -7.825360E-05
    1.391786E-05    6.918912E-05
   -2.812531E-05   -3.948051E-05
    4.178918E-05    3.406409E-05
   -6.289758E-05    2.026175E-06
    3.370287E-05   -3.833002E-05
   -8.393600E-06    2.754363E-05
    1.046037E-05   -2.930515E-05
    1.223922E-05    3.691566E-05
   -2.743856E-05   -1.210821E-05
    1.347154E-05   -1.418906E-07
   -1.397562E-05   -4.193270E-06
    1.665197E-05   -7.830107E-06
   -2.409081E-06    1.241430E-05
   -9.725880E-07   -3.303093E-06
   -2.582640E-06    4.863288E-06
   -3.322844E-06   -6.128129E-06
    4.207346E-06   -3.933934E-07
    9.317958E-08    3.852017E-07
    1.583129E-06    1.479397E-06
   -2.130064E-06    1.334190E-06
   -5.125078E-07   -1.311189E-06
   -2.474448E-08   -3.149528E-07
    6.661479E-07   -7.544033E-07
    6.193067E-07    8.542196E-07
   -4.849934E-07    1.777807E-07
   -4.234226E-08    1.372181E-07
   -4.486068E-07   -2.475139E-07
    3.811029E-07   -2.936154E-07
    1.598638E-08    1.982357E-07
    1.054427E-07   -4.277061E-08
   -8.259193E-08    2.224671E-07
   -1.187538E-07   -1.499274E-07
    6.638805E-08    8.395749E-09
   -2.416848E-08   -5.075390E-08
    8.156142E-08    2.538677E-08
   -4.347374E-08    3.842341E-08
    1.030719E-09   -1.376107E-08
   -1.742765E-08    4.100099E-09
    6.609237E-09   -2.146667E-08
    1.001283E-08    7.438513E-09
   -1.506888E-10    2.198224E-09
   -1.194694E-09    4.435101E-09
   -3.921953E-09   -1.207505E-09
   -8.556522E-11   -2.221812E-09
    1.448025E-09   -1.048701E-09
    8.900481E-10    8.901461E-10
   -7.428341E-11    5.041654E-10
   -4.691436E-10    4.582971E-10
   -4.167216E-10   -4.714622E-10
    2.394046E-10   -1.729212E-10
    8.145328E-11   -3.881424E-11
    1.368902E-10    1.062522E-10
   -9.213076E-11    9.019303E-11
   -3.881926E-11   -2.615522E-11
   -2.022540E-11   -2.885542E-11
    2.703298E-11   -2.290663E-11
    1.042561E-11    1.249491E-11
    3.434907E-12    6.018765E-12
   -8.073652E-12    8.257974E-12
   -4.061639E-12   -7.746108E-12
    3.100836E-12    6.617872E-13
   -1.272405E-12   -1.831848E-12
    3.292682E-12    9.362731E-13
   -2.370476E-12    1.403397E-12
    8.438077E-13   -1.446969E-12
   -3.641958E-13    1.190363E-12
   -1.075607E-13   -1.037229E-12
    3.938824E-13    6.636574E-13
   -4.525443E-13   -3.334881E-13
    3.722068E-13    6.690194E-14
   -2.098613E-13    3.114198E-14
    1.425521E-13   -3.476622E-14
   -9.069339E-14    7.194253E-14
    1.775332E-14   -5.575341E-14
   -1.054987E-14    1.565067E-14
    1.636304E-14   -1.923143E-14
   -3.936989E-16    1.712212E-14
    2.447343E-16   -4.488398E-15
   -4.271866E-15    6.332163E-15
   -8.675823E-16   -7.182480E-15
    2.337614E-15    2.798017E-15
   -1.053294E-15   -1.703966E-15
    1.563201E-15    1.341978E-15
   -1.496357E-15   -6.152399E-17
    7.244537E-16   -4.348313E-16
   -2.937599E-16    4.008753E-16
    9.034761E-17   -3.381494E-16
    4.184655E-17    2.872435E-16
   -1.655921E-16   -1.970365E-16
    1.828651E-16    4.562858E-17
   -1.078111E-16    9.616328E-18
    9.595594E-17   -7.862196E-18
   -8.364805E-17    5.305523E-17
    2.668003E-17   -6.278211E-17
   -8.352794E-18    3.516218E-17
    7.960782E-18   -3.466070E-17
    1.073896E-17    3.064329E-17
   -1.492619E-17   -1.157871E-17
    7.838652E-18    6.072411E-18
   -8.993711E-18   -4.861458E-18
    7.783561E-18   -1.254390E-18
   -2.766006E-18    2.374025E-18
    1.759316E-18   -8.797621E-19
   -1.422278E-18    1.560207E-18
   -6.734893E-20   -1.327430E-18
    2.107360E-19    3.219700E-19
    6.626127E-20   -2.940126E-19
    1.673385E-19    2.673818E-19
   -1.392225E-19    8.588124E-21
   -1.355738E-20    4.109558E-21
   -2.863093E-20   -4.934628E-20
    3.509603E-20   -8.348740E-21
    5.806369E-21    5.468571E-21
    4.569540E-21    1.256941E-20
   -1.070834E-20    1.630217E-21
   -2.793483E-22   -3.509147E-21
