 Vespa-Simulation Mixed Metabolite Output
 This file was generated by Vespa-Simulation. You can learn about and download Vespa here:
https://github.com/vespa-mrs/vespa/tree/main/vespa

 
 Output Path/Filename = /home/stud/casperc/bhome/Project1(DeepFit)/DeepFit-data-generation/Initial_spectra_linewidth_10_TE30_1024p
 Output Loop Values = (1,1,1)  ( Loop 1 = 15, Loop 2 = 15, Loop3 Inactive )
 Output Comment
 ---------------------------------------------------------------------------
 
 
 Experiment Information
 ---------------------------------------------------------------------------
 --- Experiment 32780d98-dc11-42ab-ab27-92876fb0934a ---
 Name: PRESS_3T_30TE
 Public: False
 Created: 2023-12-19T15:15:29
 Comment (abbr.): LC-Model basis set clone +2-HG
 PI: Casper Cappelen
 b0: 127.740000
 Peak Search PPM low/high: 0.000000 / 10.000000
 Blend tol. PPM/phase: 0.001500 / 50.000000
 Pulse seq.: 43be13ae-de9a-40a1-9a2d-c872d8bjs100 (PRESS Ideal)
 0 User static parameters: 
 19 Metabolites: 2-hydroxyglutarate, GPC-gp, NAAG-truncated, alanine, aspartate, creatine, gaba, glucose-alpha, glucose-beta, glutamate, glutamine, glutathione-glutamate, lactate, myo-inositol, n-acetylaspartate, phosphocreatine, phosphorylcholine-notrimethyl, scyllo-inositol, taurine
 19 Simulations: (not shown)
 
 Metabolite Formatting Information
 ---------------------------------------------------------------------------
 Name=GPC-gp Abbr=GPC Scale=1.0 Shift=0.0 PPM Start=0.0 PPM End=4.5
 Name=NAAG-truncated Abbr=NAAG Scale=1.0 Shift=0.0 PPM Start=0.0 PPM End=4.5
 Name=alanine Abbr=Ala Scale=1.0 Shift=0.0 PPM Start=0.0 PPM End=4.5
 Name=aspartate Abbr=Asp Scale=1.0 Shift=0.0 PPM Start=0.0 PPM End=4.5
 Name=creatine Abbr=Cr Scale=1.0 Shift=0.1 PPM Start=0.0 PPM End=4.5
 Name=gaba Abbr=GABA Scale=1.0 Shift=0.0 PPM Start=0.0 PPM End=4.5
 Name=glutamate Abbr=Glu Scale=1.0 Shift=0.0 PPM Start=0.0 PPM End=4.5
 Name=glutamine Abbr=Gln Scale=1.0 Shift=0.0 PPM Start=0.0 PPM End=4.5
 Name=glutathione-glutamate Abbr=GSH Scale=1.0 Shift=0.0 PPM Start=0.0 PPM End=4.5
 Name=lactate Abbr=Lac Scale=1.0 Shift=0.0 PPM Start=0.0 PPM End=4.5
 Name=myo-inositol Abbr=mI Scale=1.0 Shift=0.0 PPM Start=0.0 PPM End=4.5
 Name=n-acetylaspartate Abbr=NAA Scale=1.0 Shift=0.0 PPM Start=0.0 PPM End=4.5
 Name=phosphocreatine Abbr=PCr Scale=1.0 Shift=0.0 PPM Start=0.0 PPM End=4.5
 Name=phosphorylcholine-notrimethyl Abbr=PCho Scale=1.0 Shift=0.0 PPM Start=0.0 PPM End=4.5
 Name=taurine Abbr=Tau Scale=1.0 Shift=0.0 PPM Start=0.0 PPM End=4.5
 Name=glucose-alpha+glucose-beta Abbr=Glc Scale=1.0 Shift=0.0 PPM Start=0.0 PPM End=4.5
   Mixture of [metab*scale] = glucose-alpha*1.000000 + glucose-beta*1.000000
 
 ===========================================================================
 This LCModel format RAW file was created using the 
 Vespa-Simulation spectral simulation program using 
 the following settings and parameters 
 
 Sweep Width = 574.83 Hz 
 Vector Size = 1024 points 
 Apodization = 10.0 Hz Gaussian broadening
 B0 Field    = 127.74 MHz 
 Ref Singlet = False
  
 This data has been FFTd to be in the FREQUENCY domain
 
 $NMID ID='Asp'
 FMTDAT='(2E16.6)'
 VOLUME=1.0
 TRAMP=1.0
 $END
    1.113373E+00    7.481063E-01
    1.113429E+00    7.543897E-01
    1.113487E+00    7.607145E-01
    1.113549E+00    7.670814E-01
    1.113614E+00    7.734913E-01
    1.113682E+00    7.799447E-01
    1.113753E+00    7.864425E-01
    1.113828E+00    7.929855E-01
    1.113906E+00    7.995745E-01
    1.113988E+00    8.062101E-01
    1.114073E+00    8.128933E-01
    1.114163E+00    8.196248E-01
    1.114256E+00    8.264056E-01
    1.114354E+00    8.332363E-01
    1.114455E+00    8.401180E-01
    1.114561E+00    8.470514E-01
    1.114671E+00    8.540376E-01
    1.114786E+00    8.610774E-01
    1.114905E+00    8.681719E-01
    1.115029E+00    8.753220E-01
    1.115158E+00    8.825287E-01
    1.115291E+00    8.897932E-01
    1.115430E+00    8.971164E-01
    1.115573E+00    9.044995E-01
    1.115722E+00    9.119436E-01
    1.115877E+00    9.194499E-01
    1.116037E+00    9.270196E-01
    1.116203E+00    9.346540E-01
    1.116374E+00    9.423542E-01
    1.116552E+00    9.501215E-01
    1.116736E+00    9.579573E-01
    1.116927E+00    9.658629E-01
    1.117124E+00    9.738395E-01
    1.117328E+00    9.818887E-01
    1.117540E+00    9.900118E-01
    1.117759E+00    9.982103E-01
    1.117985E+00    1.006486E+00
    1.118219E+00    1.014839E+00
    1.118461E+00    1.023273E+00
    1.118711E+00    1.031789E+00
    1.118969E+00    1.040388E+00
    1.119237E+00    1.049072E+00
    1.119513E+00    1.057844E+00
    1.119799E+00    1.066704E+00
    1.120094E+00    1.075655E+00
    1.120399E+00    1.084698E+00
    1.120714E+00    1.093836E+00
    1.121040E+00    1.103071E+00
    1.121377E+00    1.112405E+00
    1.121726E+00    1.121839E+00
    1.122086E+00    1.131377E+00
    1.122458E+00    1.141020E+00
    1.122842E+00    1.150771E+00
    1.123239E+00    1.160632E+00
    1.123650E+00    1.170606E+00
    1.124074E+00    1.180696E+00
    1.124513E+00    1.190904E+00
    1.124967E+00    1.201233E+00
    1.125436E+00    1.211685E+00
    1.125920E+00    1.222265E+00
    1.126422E+00    1.232974E+00
    1.126940E+00    1.243816E+00
    1.127477E+00    1.254794E+00
    1.128031E+00    1.265911E+00
    1.128605E+00    1.277171E+00
    1.129199E+00    1.288578E+00
    1.129814E+00    1.300135E+00
    1.130450E+00    1.311845E+00
    1.131108E+00    1.323713E+00
    1.131789E+00    1.335743E+00
    1.132494E+00    1.347939E+00
    1.133224E+00    1.360306E+00
    1.133980E+00    1.372847E+00
    1.134763E+00    1.385567E+00
    1.135574E+00    1.398472E+00
    1.136413E+00    1.411567E+00
    1.137284E+00    1.424856E+00
    1.138185E+00    1.438344E+00
    1.139119E+00    1.452039E+00
    1.140088E+00    1.465945E+00
    1.141092E+00    1.480069E+00
    1.142133E+00    1.494416E+00
    1.143213E+00    1.508995E+00
    1.144334E+00    1.523810E+00
    1.145498E+00    1.538871E+00
    1.146706E+00    1.554183E+00
    1.147961E+00    1.569754E+00
    1.149265E+00    1.585593E+00
    1.150621E+00    1.601707E+00
    1.152030E+00    1.618105E+00
    1.153497E+00    1.634796E+00
    1.155024E+00    1.651789E+00
    1.156613E+00    1.669093E+00
    1.158268E+00    1.686718E+00
    1.159992E+00    1.704675E+00
    1.161789E+00    1.722974E+00
    1.163663E+00    1.741626E+00
    1.165617E+00    1.760643E+00
    1.167657E+00    1.780037E+00
    1.169786E+00    1.799820E+00
    1.172010E+00    1.820005E+00
    1.174334E+00    1.840605E+00
    1.176764E+00    1.861633E+00
    1.179306E+00    1.883104E+00
    1.181967E+00    1.905030E+00
    1.184752E+00    1.927426E+00
    1.187670E+00    1.950306E+00
    1.190726E+00    1.973682E+00
    1.193929E+00    1.997568E+00
    1.197283E+00    2.021976E+00
    1.200793E+00    2.046916E+00
    1.204463E+00    2.072399E+00
    1.208291E+00    2.098433E+00
    1.212272E+00    2.125028E+00
    1.216395E+00    2.152190E+00
    1.220641E+00    2.179932E+00
    1.224982E+00    2.208265E+00
    1.229378E+00    2.237211E+00
    1.233777E+00    2.266799E+00
    1.238117E+00    2.297078E+00
    1.242323E+00    2.328113E+00
    1.246314E+00    2.359999E+00
    1.250006E+00    2.392864E+00
    1.253323E+00    2.426873E+00
    1.256201E+00    2.462234E+00
    1.258604E+00    2.499193E+00
    1.260537E+00    2.538041E+00
    1.262056E+00    2.579096E+00
    1.263281E+00    2.622701E+00
    1.264404E+00    2.669203E+00
    1.265691E+00    2.718941E+00
    1.267481E+00    2.772221E+00
    1.270179E+00    2.829301E+00
    1.274240E+00    2.890379E+00
    1.280150E+00    2.955576E+00
    1.288403E+00    3.024941E+00
    1.299481E+00    3.098448E+00
    1.313833E+00    3.176021E+00
    1.331861E+00    3.257546E+00
    1.353915E+00    3.342905E+00
    1.380300E+00    3.432000E+00
    1.411293E+00    3.524788E+00
    1.447175E+00    3.621300E+00
    1.488272E+00    3.721653E+00
    1.535003E+00    3.826054E+00
    1.587937E+00    3.934780E+00
    1.647846E+00    4.048140E+00
    1.715751E+00    4.166418E+00
    1.792962E+00    4.289793E+00
    1.881087E+00    4.418236E+00
    1.982021E+00    4.551401E+00
    2.097894E+00    4.688496E+00
    2.230977E+00    4.828161E+00
    2.383541E+00    4.968365E+00
    2.557664E+00    5.106332E+00
    2.755008E+00    5.238522E+00
    2.976554E+00    5.360680E+00
    3.222346E+00    5.467980E+00
    3.491256E+00    5.555259E+00
    3.780811E+00    5.617346E+00
    4.087128E+00    5.649465E+00
    4.404974E+00    5.647683E+00
    4.727992E+00    5.609351E+00
    5.049074E+00    5.533478E+00
    5.360885E+00    5.420984E+00
    5.656469E+00    5.274767E+00
    5.929889E+00    5.099559E+00
    6.176798E+00    4.901550E+00
    6.394877E+00    4.687814E+00
    6.584041E+00    4.465596E+00
    6.746387E+00    4.241537E+00
    6.885853E+00    4.020961E+00
    7.007631E+00    3.807320E+00
    7.117402E+00    3.601884E+00
    7.220506E+00    3.403751E+00
    7.321165E+00    3.210156E+00
    7.421887E+00    3.017069E+00
    7.523136E+00    2.819974E+00
    7.623339E+00    2.614716E+00
    7.719225E+00    2.398281E+00
    7.806439E+00    2.169375E+00
    7.880351E+00    1.928720E+00
    7.936905E+00    1.678997E+00
    7.973395E+00    1.424450E+00
    7.989016E+00    1.170214E+00
    7.985103E+00    9.214546E-01
    7.965015E+00    6.824859E-01
    7.933663E+00    4.559781E-01
    7.896759E+00    2.424106E-01
    7.859882E+00    3.985572E-02
    7.827522E+00   -1.558587E-01
    7.802238E+00   -3.506212E-01
    7.784071E+00   -5.512125E-01
    7.770298E+00   -7.643037E-01
    7.755593E+00   -9.954203E-01
    7.732548E+00   -1.248026E+00
    7.692516E+00   -1.522858E+00
    7.626626E+00   -1.817606E+00
    7.526858E+00   -2.126984E+00
    7.387009E+00   -2.443171E+00
    7.203432E+00   -2.756554E+00
    6.975463E+00   -3.056665E+00
    6.705503E+00   -3.333189E+00
    6.398750E+00   -3.576899E+00
    6.062658E+00   -3.780421E+00
    5.706206E+00   -3.938753E+00
