 Vespa-Simulation Mixed Metabolite Output
 This file was generated by Vespa-Simulation. You can learn about and download Vespa here:
https://github.com/vespa-mrs/vespa/tree/main/vespa

 
 Output Path/Filename = /home/stud/casperc/bhome/Project1(DeepFit)/DeepFit-data-generation/Initial_spectra_linewidth_10_TE30_1024p
 Output Loop Values = (1,1,1)  ( Loop 1 = 11, Loop 2 = 11, Loop3 Inactive )
 Output Comment
 ---------------------------------------------------------------------------
 
 
 Experiment Information
 ---------------------------------------------------------------------------
 --- Experiment 982623a4-1070-4538-bb82-a4cf0a440db0 ---
 Name: SyntheticDataSetDeepFitTE22
 Public: False
 Created: 2024-10-04T10:31:50
 Comment (abbr.): 
 PI: Casper Cappelen
 b0: 127.740000
 Peak Search PPM low/high: -10.000000 / 10.000000
 Blend tol. PPM/phase: 0.000150 / 50.000000
 Pulse seq.: 43be13ae-de9a-40a1-9a2d-c872d8bjs100 (PRESS Ideal)
 0 User static parameters: 
 28 Metabolites: 2-hydroxyglutarate, alanine, choline-methylene, choline-trimethyl, choline-truncated, creatine, ethanolamine, gaba, glucose-alpha, glucose-beta, glutamate, glutamine, glutathione-glutamate, glutathione-glycine-cysteine, glycine, GPC-gp, GPC-pcholine1, GPC-pcholine2, lactate, myo-inositol, n-acetylaspartate, NAAG-truncated, phosphocreatine, phosphorylcholine-notrimethyl, phosphorylcholine-trimethyl, phosphorylethanolamine, pyruvate, taurine
 28 Simulations: (not shown)
 
 Metabolite Formatting Information
 ---------------------------------------------------------------------------
 Name=2-hydroxyglutarate Abbr=2HG Scale=1.0 Shift=0.0 PPM Start=-7.81 PPM End=7.81
 Name=alanine Abbr=Ala Scale=1.0 Shift=0.0 PPM Start=-7.81 PPM End=7.81
 Name=choline-methylene Abbr=choline-methylene Scale=1.0 Shift=0.0 PPM Start=-7.81 PPM End=7.81
 Name=choline-trimethyl Abbr=choline-trimethyl Scale=1.0 Shift=0.0 PPM Start=-7.81 PPM End=7.81
 Name=choline-truncated Abbr=choline-truncated Scale=1.0 Shift=0.0 PPM Start=-7.81 PPM End=7.81
 Name=creatine Abbr=Cr Scale=1.0 Shift=0.0 PPM Start=-7.81 PPM End=7.81
 Name=ethanolamine Abbr=ETA Scale=1.0 Shift=0.0 PPM Start=-7.81 PPM End=7.81
 Name=gaba Abbr=GABA Scale=1.0 Shift=0.0 PPM Start=-7.81 PPM End=7.81
 Name=glutamate Abbr=Glu Scale=1.0 Shift=0.0 PPM Start=-7.81 PPM End=7.81
 Name=glutamine Abbr=Gln Scale=1.0 Shift=0.0 PPM Start=-7.81 PPM End=7.81
 Name=glutathione-glutamate Abbr=glutathione-glutamate Scale=1.0 Shift=0.0 PPM Start=-7.81 PPM End=7.81
 Name=glutathione-glycine-cysteine Abbr=GSH Scale=1.0 Shift=0.0 PPM Start=-7.81 PPM End=7.81
 Name=glycine Abbr=Gly Scale=1.0 Shift=0.0 PPM Start=-7.81 PPM End=7.81
 Name=GPC-gp Abbr=GPC-gp Scale=1.0 Shift=0.0 PPM Start=-7.81 PPM End=7.81
 Name=GPC-pcholine1 Abbr=GPC-pcholine1 Scale=1.0 Shift=0.0 PPM Start=-7.81 PPM End=7.81
 Name=GPC-pcholine2 Abbr=GPC-pcholine2 Scale=1.0 Shift=0.0 PPM Start=-7.81 PPM End=7.81
 Name=lactate Abbr=Lac Scale=1.0 Shift=0.0 PPM Start=-7.81 PPM End=7.81
 Name=myo-inositol Abbr=mI Scale=1.0 Shift=0.0 PPM Start=-7.81 PPM End=7.81
 Name=n-acetylaspartate Abbr=NAA Scale=1.0 Shift=0.0 PPM Start=-7.18 PPM End=7.81
 Name=NAAG-truncated Abbr=NAAG Scale=1.0 Shift=0.0 PPM Start=-7.81 PPM End=7.81
 Name=phosphocreatine Abbr=PCr Scale=1.0 Shift=0.0 PPM Start=-7.81 PPM End=7.81
 Name=phosphorylcholine-notrimethyl Abbr=phosphorylcholine-notrimethyl Scale=1.0 Shift=0.0 PPM Start=-7.81 PPM End=7.81
 Name=phosphorylcholine-trimethyl Abbr=phosphorylcholine-trimethyl Scale=1.0 Shift=0.0 PPM Start=-7.81 PPM End=7.81
 Name=phosphorylethanolamine Abbr=PE Scale=1.0 Shift=0.0 PPM Start=-7.81 PPM End=7.81
 Name=pyruvate Abbr=Pyr Scale=1.0 Shift=0.0 PPM Start=-7.51 PPM End=7.81
 Name=taurine Abbr=Tau Scale=1.0 Shift=0.0 PPM Start=7.81 PPM End=7.81
 Name=glucose-beta+glucose-alpha Abbr=Glc Scale=1.0 Shift=0.0 PPM Start=-7.81 PPM End=7.81
   Mixture of [metab*scale] = glucose-beta*1.000000 + glucose-alpha*1.000000
 
 ===========================================================================
 This LCModel format RAW file was created using the 
 Vespa-Simulation spectral simulation program using 
 the following settings and parameters 
 
 Sweep Width = 3500.0 Hz 
 Vector Size = 2048 points 
 Apodization = 15.0 Hz Lorentzian broadening
 B0 Field    = 127.74 MHz 
 Ref Singlet = False
  
 $NMID ID='choline-trimethyl'
 FMTDAT='(2E16.6)'
 VOLUME=1.0
 TRAMP=1.0
 $END
    8.995899E+00    5.080453E-11
    8.345316E+00    3.021875E+00
    6.726681E+00    5.606664E+00
    4.356828E+00    7.460786E+00
    1.535535E+00    8.384738E+00
   -1.392087E+00    8.294145E+00
   -4.077542E+00    7.226663E+00
   -6.210196E+00    5.334285E+00
   -7.552911E+00    2.862397E+00
   -7.968169E+00    1.182258E-01
   -7.431583E+00   -2.566941E+00
   -6.031804E+00   -4.877670E+00
   -3.957072E+00   -6.551047E+00
   -1.470266E+00   -7.406464E+00
    1.124021E+00   -7.364649E+00
    3.516581E+00   -6.454413E+00
    5.430359E+00   -4.806293E+00
    6.652082E+00   -2.634514E+00
    7.055899E+00   -2.094265E-01
    6.615893E+00    2.175860E+00
    5.406447E+00    4.240845E+00
    3.590823E+00    5.750190E+00
    1.399519E+00    6.540461E+00
   -8.987044E-01    6.537482E+00
   -3.029721E+00    5.762705E+00
   -4.746329E+00    4.328133E+00
   -5.856870E+00    2.420700E+00
   -6.246343E+00    2.782347E-01
   -5.887948E+00   -1.840147E+00
   -4.843916E+00   -3.684837E+00
   -3.255761E+00   -5.045388E+00
   -1.325405E+00   -5.774060E+00
    7.100131E-01   -5.801585E+00
    2.607436E+00   -5.143406E+00
    4.146556E+00   -3.895434E+00
    5.155089E+00   -2.220788E+00
    5.528141E+00   -3.284514E-01
    5.238554E+00    1.552237E+00
    4.338181E+00    3.199598E+00
    2.949535E+00    4.425376E+00
    1.249654E+00    5.095989E+00
   -5.525708E-01    5.147079E+00
   -2.241517E+00    4.589104E+00
   -3.620848E+00    3.504170E+00
   -4.535977E+00    2.034351E+00
   -4.891157E+00    3.635251E-01
   -4.659404E+00   -1.305727E+00
   -3.883675E+00   -2.776408E+00
   -2.670095E+00   -3.880073E+00
   -1.173540E+00   -4.496254E+00
    4.216643E-01   -4.565144E+00
    1.924594E+00   -4.093215E+00
    3.160298E+00   -3.150555E+00
    3.989918E+00   -1.861059E+00
    4.326367E+00   -3.861903E-01
    4.143049E+00    1.095027E+00
    3.475435E+00    2.407488E+00
    2.415335E+00    3.400666E+00
    1.098245E+00    3.965932E+00
   -3.134201E-01    4.047869E+00
   -1.650377E+00    3.649721E+00
   -2.756930E+00    2.831246E+00
   -3.508475E+00    1.700293E+00
   -3.825728E+00    3.988146E-01
   -3.682852E+00   -9.151406E-01
   -3.108944E+00   -2.086019E+00
   -2.183324E+00   -2.979337E+00
   -1.024544E+00   -3.497132E+00
    2.243122E-01   -3.588212E+00
    1.413388E+00   -3.253199E+00
    2.403821E+00   -2.543062E+00
    3.084095E+00   -1.551566E+00
    3.382086E+00   -4.033132E-01
    3.272821E+00    7.618651E-01
    2.780053E+00    1.806091E+00
    1.972183E+00    2.609221E+00
    9.530716E-01    3.082836E+00
   -1.514460E-01    3.179869E+00
   -1.208621E+00    2.898863E+00
   -2.094841E+00    2.283130E+00
   -2.710146E+00    1.414224E+00
   -2.989046E+00    4.015201E-01
   -2.907586E+00   -6.315739E-01
   -2.485036E+00   -1.562478E+00
   -1.780336E+00   -2.284126E+00
   -8.842347E-01   -2.716830E+00
    9.229299E-02   -2.817213E+00
    1.031924E+00   -2.582307E+00
    1.824640E+00   -2.048777E+00
    2.380735E+00   -1.287640E+00
    2.640939E+00   -3.947451E-01
    2.582382E+00    5.209247E-01
    2.220518E+00    1.350597E+00
    1.606124E+00    1.998714E+00
    8.184968E-01    2.393542E+00
   -4.468633E-02    2.495225E+00
   -8.796012E-01    2.299601E+00
   -1.588370E+00    1.837686E+00
   -2.090676E+00    1.171131E+00
   -2.332716E+00    3.841512E-01
   -2.292895E+00   -4.272162E-01
   -1.983417E+00   -1.166475E+00
   -1.448063E+00   -1.748233E+00
   -7.560092E-01   -2.108085E+00
    6.822096E-03   -2.209426E+00
    7.484260E-01   -2.047212E+00
    1.381903E+00   -1.647618E+00
    1.835299E+00   -1.064166E+00
    2.059881E+00   -3.707017E-01
    2.035280E+00    3.480448E-01
    1.771032E+00    1.006495E+00
    1.304741E+00    1.528517E+00
    6.968607E-01    1.856121E+00
    2.303453E-02    1.955820E+00
   -6.355872E-01    1.821964E+00
   -1.201565E+00    1.476569E+00
   -1.610550E+00    9.660686E-01
   -1.818449E+00    3.551499E-01
   -1.806090E+00   -2.813722E-01
   -1.580819E+00   -8.676594E-01
   -1.174987E+00   -1.335778E+00
   -6.412358E-01   -1.633740E+00
   -4.604438E-02   -1.730844E+00
    5.386710E-01   -1.620995E+00
    1.044154E+00   -1.322694E+00
    1.412840E+00   -8.762024E-01
    1.604841E+00   -3.382707E-01
    1.602267E+00    2.252780E-01
    1.410586E+00    7.471584E-01
    1.057487E+00    1.166867E+00
    5.889755E-01    1.437581E+00
    6.345621E-02    1.531324E+00
   -4.554335E-01    1.441780E+00
   -9.067396E-01    1.184407E+00
   -1.238917E+00    7.940787E-01
   -1.415933E+00    3.204376E-01
   -1.421037E+00   -1.783654E-01
   -1.258228E+00   -6.427644E-01
   -9.512189E-01   -1.018849E+00
   -5.401746E-01   -1.264554E+00
   -7.630715E-02   -1.354424E+00
    3.841568E-01   -1.281976E+00
    7.869421E-01   -1.060109E+00
    1.086036E+00   -7.190156E-01
    1.248901E+00   -3.021593E-01
    1.259959E+00    1.391575E-01
    1.121976E+00    5.522873E-01
    8.552183E-01    8.891518E-01
    4.946290E-01    1.112020E+00
    8.529379E-02    1.197629E+00
   -3.231530E-01    1.139547E+00
   -6.825110E-01    9.484783E-01
   -9.516363E-01    6.505852E-01
   -1.101242E+00    2.838261E-01
   -1.116821E+00   -1.066224E-01
   -1.000125E+00   -4.740266E-01
   -7.684736E-01   -7.756253E-01
   -4.522956E-01   -9.775718E-01
   -9.123327E-02   -1.058688E+00
    2.709732E-01   -1.012656E+00
    5.914851E-01   -8.482981E-01
    8.335773E-01   -5.881874E-01
    9.707676E-01   -2.656001E-01
    9.896682E-01    7.970332E-02
    8.912171E-01    4.063455E-01
    6.902128E-01    6.762295E-01
    4.130858E-01    8.590824E-01
    9.461347E-02    9.356079E-01
   -2.264954E-01    8.996201E-01
   -5.122580E-01    7.583830E-01
