 Vespa-Simulation Mixed Metabolite Output
 This file was generated by Vespa-Simulation. You can learn about and download Vespa here:
https://github.com/vespa-mrs/vespa/tree/main/vespa

 
 Output Path/Filename = /home/stud/casperc/bhome/Project1(DeepFit)/DeepFit-data-generation/Initial_spectra_linewidth_10_TE30_1024p
 Output Loop Values = (1,1,1)  ( Loop 1 = 11, Loop 2 = 11, Loop3 Inactive )
 Output Comment
 ---------------------------------------------------------------------------
 
 
 Experiment Information
 ---------------------------------------------------------------------------
 --- Experiment 982623a4-1070-4538-bb82-a4cf0a440db0 ---
 Name: SyntheticDataSetDeepFitTE22
 Public: False
 Created: 2024-10-04T10:31:50
 Comment (abbr.): 
 PI: Casper Cappelen
 b0: 127.740000
 Peak Search PPM low/high: -10.000000 / 10.000000
 Blend tol. PPM/phase: 0.000150 / 50.000000
 Pulse seq.: 43be13ae-de9a-40a1-9a2d-c872d8bjs100 (PRESS Ideal)
 0 User static parameters: 
 28 Metabolites: 2-hydroxyglutarate, alanine, choline-methylene, choline-trimethyl, choline-truncated, creatine, ethanolamine, gaba, glucose-alpha, glucose-beta, glutamate, glutamine, glutathione-glutamate, glutathione-glycine-cysteine, glycine, GPC-gp, GPC-pcholine1, GPC-pcholine2, lactate, myo-inositol, n-acetylaspartate, NAAG-truncated, phosphocreatine, phosphorylcholine-notrimethyl, phosphorylcholine-trimethyl, phosphorylethanolamine, pyruvate, taurine
 28 Simulations: (not shown)
 
 Metabolite Formatting Information
 ---------------------------------------------------------------------------
 Name=2-hydroxyglutarate Abbr=2HG Scale=1.0 Shift=0.0 PPM Start=-7.81 PPM End=7.81
 Name=alanine Abbr=Ala Scale=1.0 Shift=0.0 PPM Start=-7.81 PPM End=7.81
 Name=choline-methylene Abbr=choline-methylene Scale=1.0 Shift=0.0 PPM Start=-7.81 PPM End=7.81
 Name=choline-trimethyl Abbr=choline-trimethyl Scale=1.0 Shift=0.0 PPM Start=-7.81 PPM End=7.81
 Name=choline-truncated Abbr=choline-truncated Scale=1.0 Shift=0.0 PPM Start=-7.81 PPM End=7.81
 Name=creatine Abbr=Cr Scale=1.0 Shift=0.0 PPM Start=-7.81 PPM End=7.81
 Name=ethanolamine Abbr=ETA Scale=1.0 Shift=0.0 PPM Start=-7.81 PPM End=7.81
 Name=gaba Abbr=GABA Scale=1.0 Shift=0.0 PPM Start=-7.81 PPM End=7.81
 Name=glutamate Abbr=Glu Scale=1.0 Shift=0.0 PPM Start=-7.81 PPM End=7.81
 Name=glutamine Abbr=Gln Scale=1.0 Shift=0.0 PPM Start=-7.81 PPM End=7.81
 Name=glutathione-glutamate Abbr=glutathione-glutamate Scale=1.0 Shift=0.0 PPM Start=-7.81 PPM End=7.81
 Name=glutathione-glycine-cysteine Abbr=GSH Scale=1.0 Shift=0.0 PPM Start=-7.81 PPM End=7.81
 Name=glycine Abbr=Gly Scale=1.0 Shift=0.0 PPM Start=-7.81 PPM End=7.81
 Name=GPC-gp Abbr=GPC-gp Scale=1.0 Shift=0.0 PPM Start=-7.81 PPM End=7.81
 Name=GPC-pcholine1 Abbr=GPC-pcholine1 Scale=1.0 Shift=0.0 PPM Start=-7.81 PPM End=7.81
 Name=GPC-pcholine2 Abbr=GPC-pcholine2 Scale=1.0 Shift=0.0 PPM Start=-7.81 PPM End=7.81
 Name=lactate Abbr=Lac Scale=1.0 Shift=0.0 PPM Start=-7.81 PPM End=7.81
 Name=myo-inositol Abbr=mI Scale=1.0 Shift=0.0 PPM Start=-7.81 PPM End=7.81
 Name=n-acetylaspartate Abbr=NAA Scale=1.0 Shift=0.0 PPM Start=-7.18 PPM End=7.81
 Name=NAAG-truncated Abbr=NAAG Scale=1.0 Shift=0.0 PPM Start=-7.81 PPM End=7.81
 Name=phosphocreatine Abbr=PCr Scale=1.0 Shift=0.0 PPM Start=-7.81 PPM End=7.81
 Name=phosphorylcholine-notrimethyl Abbr=phosphorylcholine-notrimethyl Scale=1.0 Shift=0.0 PPM Start=-7.81 PPM End=7.81
 Name=phosphorylcholine-trimethyl Abbr=phosphorylcholine-trimethyl Scale=1.0 Shift=0.0 PPM Start=-7.81 PPM End=7.81
 Name=phosphorylethanolamine Abbr=PE Scale=1.0 Shift=0.0 PPM Start=-7.81 PPM End=7.81
 Name=pyruvate Abbr=Pyr Scale=1.0 Shift=0.0 PPM Start=-7.51 PPM End=7.81
 Name=taurine Abbr=Tau Scale=1.0 Shift=0.0 PPM Start=7.81 PPM End=7.81
 Name=glucose-beta+glucose-alpha Abbr=Glc Scale=1.0 Shift=0.0 PPM Start=-7.81 PPM End=7.81
   Mixture of [metab*scale] = glucose-beta*1.000000 + glucose-alpha*1.000000
 
 ===========================================================================
 This LCModel format RAW file was created using the 
 Vespa-Simulation spectral simulation program using 
 the following settings and parameters 
 
 Sweep Width = 3500.0 Hz 
 Vector Size = 2048 points 
 Apodization = 15.0 Hz Lorentzian broadening
 B0 Field    = 127.74 MHz 
 Ref Singlet = False
  
 $NMID ID='choline-truncated'
 FMTDAT='(2E16.6)'
 VOLUME=1.0
 TRAMP=1.0
 $END
    3.000000E+00   -1.387779E-16
    2.783041E+00    1.007751E+00
    2.243253E+00    1.869743E+00
    1.452943E+00    2.488070E+00
    5.120815E-01    2.796203E+00
   -4.642443E-01    2.766000E+00
   -1.359817E+00    2.410016E+00
   -2.071044E+00    1.778937E+00
   -2.518841E+00    9.545892E-01
   -2.657342E+00    3.942826E-02
   -2.478410E+00   -8.560664E-01
   -2.011603E+00   -1.626699E+00
   -1.319692E+00   -2.184787E+00
   -4.903418E-01   -2.470093E+00
    3.748693E-01   -2.456170E+00
    1.172819E+00   -2.152621E+00
    1.811106E+00   -1.602972E+00
    2.218595E+00   -8.786612E-01
    2.353305E+00   -6.984958E-02
    2.206582E+00    7.257078E-01
    1.803223E+00    1.414456E+00
    1.197672E+00    1.917898E+00
    4.667991E-01    2.181516E+00
   -2.997588E-01    2.180557E+00
   -1.010569E+00    1.922164E+00
   -1.583175E+00    1.443685E+00
   -1.953641E+00    8.074596E-01
   -2.083594E+00    9.281216E-02
   -1.964082E+00   -6.138286E-01
   -1.615850E+00   -1.229199E+00
   -1.086091E+00   -1.683091E+00
   -4.421528E-01   -1.926210E+00
    2.368621E-01   -1.935435E+00
    8.698708E-01   -1.715903E+00
    1.383373E+00   -1.299596E+00
    1.719881E+00   -7.409182E-01
    1.844388E+00   -1.095849E-01
    1.747816E+00    5.178942E-01
    1.447450E+00    1.067556E+00
    9.841505E-01    1.476581E+00
    4.169759E-01    1.700386E+00
   -1.843807E-01    1.717483E+00
   -7.479719E-01    1.531342E+00
   -1.208278E+00    1.169345E+00
   -1.513704E+00    6.788865E-01
   -1.632282E+00    1.213178E-01
   -1.554991E+00   -4.357608E-01
   -1.296149E+00   -9.266040E-01
   -8.911554E-01   -1.294987E+00
   -3.916884E-01   -1.500691E+00
    1.407398E-01   -1.523738E+00
    6.424053E-01   -1.366268E+00
    1.054907E+00   -1.051657E+00
    1.331884E+00   -6.212464E-01
    1.444249E+00   -1.289219E-01
    1.383106E+00    3.655595E-01
    1.160277E+00    8.037397E-01
    8.063945E-01    1.135358E+00
    3.666808E-01    1.324134E+00
   -1.046462E-01    1.351547E+00
   -5.510668E-01    1.218660E+00
   -9.205893E-01    9.454076E-01
   -1.171595E+00    5.677861E-01
   -1.277593E+00    1.331852E-01
   -1.229935E+00   -3.056208E-01
   -1.038319E+00   -6.966821E-01
   -7.292162E-01   -9.950760E-01
   -3.422082E-01   -1.168071E+00
    7.492369E-02   -1.198550E+00
    4.721264E-01   -1.086700E+00
    8.030102E-01   -8.495274E-01
    1.030311E+00   -5.183378E-01
    1.129919E+00   -1.347447E-01
    1.093471E+00    2.545421E-01
    9.288824E-01    6.034559E-01
    6.589887E-01    8.718465E-01
    3.184790E-01    1.030156E+00
   -5.060768E-02    1.062637E+00
   -4.039127E-01    9.687851E-01
   -7.001216E-01    7.630529E-01
   -9.058150E-01    4.726801E-01
   -9.990891E-01    1.342102E-01
   -9.719174E-01   -2.111138E-01
   -8.307203E-01   -5.223169E-01
   -5.951824E-01   -7.636005E-01
   -2.956262E-01   -9.083114E-01
    3.085598E-02   -9.419291E-01
    3.450407E-01   -8.634417E-01
    6.101372E-01   -6.850886E-01
    7.961387E-01   -4.306003E-01
    8.832092E-01   -1.320166E-01
    8.636814E-01    1.742220E-01
    7.427034E-01    4.517362E-01
    5.372407E-01    6.685573E-01
    2.738022E-01    8.006778E-01
   -1.494735E-02    8.347484E-01
   -2.942781E-01    7.693566E-01
   -5.314404E-01    6.148602E-01
   -6.995518E-01    3.918690E-01
   -7.805940E-01    1.285500E-01
   -7.673231E-01   -1.429670E-01
   -6.638026E-01   -3.903892E-01
   -4.846676E-01   -5.851317E-01
   -2.530559E-01   -7.056251E-01
    2.281800E-03   -7.396004E-01
    2.505505E-01   -6.853503E-01
    4.626556E-01   -5.516186E-01
    6.144972E-01   -3.563075E-01
    6.897449E-01   -1.241302E-01
    6.815596E-01    1.165488E-01
    5.931163E-01    3.370717E-01
    4.369907E-01    5.119359E-01
    2.334153E-01    6.217073E-01
    7.717838E-03    6.551537E-01
   -2.129220E-01    6.103643E-01
   -4.025589E-01    4.946960E-01
   -5.396251E-01    3.236896E-01
   -6.093334E-01    1.190069E-01
   -6.052425E-01   -9.428944E-02
   -5.297962E-01   -2.907856E-01
   -3.938190E-01   -4.477086E-01
   -2.149413E-01   -5.476226E-01
   -1.543694E-02   -5.802214E-01
    1.805896E-01   -5.434442E-01
    3.500848E-01   -4.434770E-01
    4.737404E-01   -2.938021E-01
    5.381685E-01   -1.134376E-01
    5.373536E-01    7.554994E-02
    4.731121E-01    2.505958E-01
    3.547147E-01    3.914018E-01
    1.975799E-01    4.822520E-01
    2.129068E-02    5.137464E-01
   -1.528067E-01    4.837503E-01
   -3.042586E-01    3.974332E-01
   -4.157613E-01    2.664824E-01
   -4.752103E-01    1.075458E-01
   -4.769694E-01   -5.986652E-02
   -4.223635E-01   -2.157622E-01
   -3.193377E-01   -3.420398E-01
   -1.813627E-01   -4.245677E-01
   -2.562385E-02   -4.547862E-01
    1.290027E-01   -4.305028E-01
    2.642891E-01   -3.560329E-01
    3.647751E-01   -2.415030E-01
    4.195204E-01   -1.015004E-01
    4.232785E-01    4.674789E-02
    3.769625E-01    1.855563E-01
    2.873671E-01    2.987671E-01
    1.662212E-01    3.736931E-01
    2.866738E-02    4.025045E-01
   -1.086167E-01    3.830246E-01
   -2.294284E-01    3.188367E-01
   -3.199306E-01    2.187220E-01
   -3.702665E-01    9.543131E-02
   -3.755458E-01   -3.585175E-02
   -3.363420E-01   -1.594136E-01
   -2.584664E-01   -2.608697E-01
   -1.521413E-01   -3.288281E-01
   -3.069317E-02   -3.561532E-01
    9.116691E-02   -3.407060E-01
    1.990248E-01   -2.854404E-01
    2.805171E-01   -1.979397E-01
    3.267222E-01   -8.939196E-02
    3.331218E-01    2.682676E-02
    3.000181E-01    1.367901E-01
    2.323796E-01    2.276699E-01
    1.390938E-01    2.892662E-01
    3.186287E-02    3.150708E-01
   -7.628124E-02    3.029877E-01
   -1.725452E-01    2.554504E-01
