 Vespa-Simulation Mixed Metabolite Output
 This file was generated by Vespa-Simulation. You can learn about and download Vespa here:
https://github.com/vespa-mrs/vespa/tree/main/vespa

 
 Output Path/Filename = /home/stud/casperc/bhome/Project1(DeepFit)/DeepFit-data-generation/Initial_spectra_linewidth_10_TE30_1024p
 Output Loop Values = (1,1,1)  ( Loop 1 = 11, Loop 2 = 11, Loop3 Inactive )
 Output Comment
 ---------------------------------------------------------------------------
 
 
 Experiment Information
 ---------------------------------------------------------------------------
 --- Experiment 982623a4-1070-4538-bb82-a4cf0a440db0 ---
 Name: SyntheticDataSetDeepFitTE22
 Public: False
 Created: 2024-10-04T10:31:50
 Comment (abbr.): 
 PI: Casper Cappelen
 b0: 127.740000
 Peak Search PPM low/high: -10.000000 / 10.000000
 Blend tol. PPM/phase: 0.000150 / 50.000000
 Pulse seq.: 43be13ae-de9a-40a1-9a2d-c872d8bjs100 (PRESS Ideal)
 0 User static parameters: 
 28 Metabolites: 2-hydroxyglutarate, alanine, choline-methylene, choline-trimethyl, choline-truncated, creatine, ethanolamine, gaba, glucose-alpha, glucose-beta, glutamate, glutamine, glutathione-glutamate, glutathione-glycine-cysteine, glycine, GPC-gp, GPC-pcholine1, GPC-pcholine2, lactate, myo-inositol, n-acetylaspartate, NAAG-truncated, phosphocreatine, phosphorylcholine-notrimethyl, phosphorylcholine-trimethyl, phosphorylethanolamine, pyruvate, taurine
 28 Simulations: (not shown)
 
 Metabolite Formatting Information
 ---------------------------------------------------------------------------
 Name=2-hydroxyglutarate Abbr=2HG Scale=1.0 Shift=0.0 PPM Start=-7.81 PPM End=7.81
 Name=alanine Abbr=Ala Scale=1.0 Shift=0.0 PPM Start=-7.81 PPM End=7.81
 Name=choline-methylene Abbr=choline-methylene Scale=1.0 Shift=0.0 PPM Start=-7.81 PPM End=7.81
 Name=choline-trimethyl Abbr=choline-trimethyl Scale=1.0 Shift=0.0 PPM Start=-7.81 PPM End=7.81
 Name=choline-truncated Abbr=choline-truncated Scale=1.0 Shift=0.0 PPM Start=-7.81 PPM End=7.81
 Name=creatine Abbr=Cr Scale=1.0 Shift=0.0 PPM Start=-7.81 PPM End=7.81
 Name=ethanolamine Abbr=ETA Scale=1.0 Shift=0.0 PPM Start=-7.81 PPM End=7.81
 Name=gaba Abbr=GABA Scale=1.0 Shift=0.0 PPM Start=-7.81 PPM End=7.81
 Name=glutamate Abbr=Glu Scale=1.0 Shift=0.0 PPM Start=-7.81 PPM End=7.81
 Name=glutamine Abbr=Gln Scale=1.0 Shift=0.0 PPM Start=-7.81 PPM End=7.81
 Name=glutathione-glutamate Abbr=glutathione-glutamate Scale=1.0 Shift=0.0 PPM Start=-7.81 PPM End=7.81
 Name=glutathione-glycine-cysteine Abbr=GSH Scale=1.0 Shift=0.0 PPM Start=-7.81 PPM End=7.81
 Name=glycine Abbr=Gly Scale=1.0 Shift=0.0 PPM Start=-7.81 PPM End=7.81
 Name=GPC-gp Abbr=GPC-gp Scale=1.0 Shift=0.0 PPM Start=-7.81 PPM End=7.81
 Name=GPC-pcholine1 Abbr=GPC-pcholine1 Scale=1.0 Shift=0.0 PPM Start=-7.81 PPM End=7.81
 Name=GPC-pcholine2 Abbr=GPC-pcholine2 Scale=1.0 Shift=0.0 PPM Start=-7.81 PPM End=7.81
 Name=lactate Abbr=Lac Scale=1.0 Shift=0.0 PPM Start=-7.81 PPM End=7.81
 Name=myo-inositol Abbr=mI Scale=1.0 Shift=0.0 PPM Start=-7.81 PPM End=7.81
 Name=n-acetylaspartate Abbr=NAA Scale=1.0 Shift=0.0 PPM Start=-7.18 PPM End=7.81
 Name=NAAG-truncated Abbr=NAAG Scale=1.0 Shift=0.0 PPM Start=-7.81 PPM End=7.81
 Name=phosphocreatine Abbr=PCr Scale=1.0 Shift=0.0 PPM Start=-7.81 PPM End=7.81
 Name=phosphorylcholine-notrimethyl Abbr=phosphorylcholine-notrimethyl Scale=1.0 Shift=0.0 PPM Start=-7.81 PPM End=7.81
 Name=phosphorylcholine-trimethyl Abbr=phosphorylcholine-trimethyl Scale=1.0 Shift=0.0 PPM Start=-7.81 PPM End=7.81
 Name=phosphorylethanolamine Abbr=PE Scale=1.0 Shift=0.0 PPM Start=-7.81 PPM End=7.81
 Name=pyruvate Abbr=Pyr Scale=1.0 Shift=0.0 PPM Start=-7.51 PPM End=7.81
 Name=taurine Abbr=Tau Scale=1.0 Shift=0.0 PPM Start=7.81 PPM End=7.81
 Name=glucose-beta+glucose-alpha Abbr=Glc Scale=1.0 Shift=0.0 PPM Start=-7.81 PPM End=7.81
   Mixture of [metab*scale] = glucose-beta*1.000000 + glucose-alpha*1.000000
 
 ===========================================================================
 This LCModel format RAW file was created using the 
 Vespa-Simulation spectral simulation program using 
 the following settings and parameters 
 
 Sweep Width = 3500.0 Hz 
 Vector Size = 2048 points 
 Apodization = 15.0 Hz Lorentzian broadening
 B0 Field    = 127.74 MHz 
 Ref Singlet = False
  
 This data has been FFTd to be in the FREQUENCY domain
 
 $NMID ID='choline-trimethyl'
 FMTDAT='(2E16.6)'
 VOLUME=1.0
 TRAMP=1.0
 $END
    5.510124E+00    2.559397E+01
    5.528036E+00    2.582594E+01
    5.546443E+00    2.606202E+01
    5.565355E+00    2.630230E+01
    5.584764E+00    2.654689E+01
    5.604672E+00    2.679594E+01
    5.625116E+00    2.704961E+01
    5.646157E+00    2.730804E+01
    5.667838E+00    2.757132E+01
    5.690175E+00    2.783956E+01
    5.713173E+00    2.811292E+01
    5.736854E+00    2.839154E+01
    5.761251E+00    2.867557E+01
    5.786382E+00    2.896516E+01
    5.812246E+00    2.926047E+01
    5.838858E+00    2.956172E+01
    5.866280E+00    2.986912E+01
    5.894581E+00    3.018284E+01
    5.923792E+00    3.050305E+01
    5.953924E+00    3.082994E+01
    5.985012E+00    3.116376E+01
    6.017123E+00    3.150474E+01
    6.050306E+00    3.185308E+01
    6.084575E+00    3.220902E+01
    6.119968E+00    3.257285E+01
    6.156580E+00    3.294487E+01
    6.194519E+00    3.332531E+01
    6.233824E+00    3.371441E+01
    6.274485E+00    3.411245E+01
    6.316553E+00    3.451983E+01
    6.360162E+00    3.493691E+01
    6.405410E+00    3.536394E+01
    6.452280E+00    3.580127E+01
    6.500813E+00    3.624940E+01
    6.551230E+00    3.670878E+01
    6.603676E+00    3.717970E+01
    6.658130E+00    3.766257E+01
    6.714678E+00    3.815796E+01
    6.773528E+00    3.866637E+01
    6.834816E+00    3.918824E+01
    6.898593E+00    3.972409E+01
    6.964965E+00    4.027455E+01
    7.034130E+00    4.084029E+01
    7.106292E+00    4.142189E+01
    7.181604E+00    4.202000E+01
    7.260214E+00    4.263534E+01
    7.342317E+00    4.326870E+01
    7.428152E+00    4.392088E+01
    7.517956E+00    4.459272E+01
    7.611955E+00    4.528510E+01
    7.710401E+00    4.599899E+01
    7.813592E+00    4.673543E+01
    7.921854E+00    4.749549E+01
    8.035519E+00    4.828032E+01
    8.154937E+00    4.909113E+01
    8.280501E+00    4.992927E+01
    8.412664E+00    5.079614E+01
    8.551915E+00    5.169321E+01
    8.698752E+00    5.262205E+01
    8.853714E+00    5.358440E+01
    9.017414E+00    5.458210E+01
    9.190535E+00    5.561712E+01
    9.373808E+00    5.669155E+01
    9.568014E+00    5.780769E+01
    9.774022E+00    5.896800E+01
    9.992815E+00    6.017518E+01
    1.022549E+01    6.143209E+01
    1.047325E+01    6.274184E+01
    1.073742E+01    6.410780E+01
    1.101946E+01    6.553365E+01
    1.132103E+01    6.702337E+01
    1.164397E+01    6.858131E+01
    1.199034E+01    7.021221E+01
    1.236245E+01    7.192127E+01
    1.276291E+01    7.371418E+01
    1.319470E+01    7.559715E+01
    1.366112E+01    7.757704E+01
    1.416594E+01    7.966140E+01
    1.471346E+01    8.185861E+01
    1.530859E+01    8.417793E+01
    1.595702E+01    8.662966E+01
    1.666525E+01    8.922524E+01
    1.744082E+01    9.197742E+01
    1.829251E+01    9.490048E+01
    1.923055E+01    9.801043E+01
    2.026692E+01    1.013252E+02
    2.141572E+01    1.048652E+02
    2.269362E+01    1.086532E+02
    2.412049E+01    1.127153E+02
    2.572014E+01    1.170813E+02
    2.752128E+01    1.217848E+02
    2.955875E+01    1.268646E+02
    3.187517E+01    1.323651E+02
    3.452299E+01    1.383372E+02
    3.756733E+01    1.448397E+02
    4.108972E+01    1.519401E+02
    4.519324E+01    1.597164E+02
    5.000952E+01    1.682578E+02
    5.570841E+01    1.776662E+02
    6.251145E+01    1.880561E+02
    7.071089E+01    1.995529E+02
    8.069680E+01    2.122881E+02
    9.299577E+01    2.263865E+02
    1.083261E+02    2.419393E+02
    1.276756E+02    2.589486E+02
    1.524059E+02    2.772166E+02
    1.843805E+02    2.961297E+02
    2.260742E+02    3.142442E+02
    2.805211E+02    3.285321E+02
    3.506875E+02    3.331541E+02
    4.373469E+02    3.180034E+02
    5.342344E+02    2.687830E+02
    6.216738E+02    1.732023E+02
    6.681422E+02    3.607900E+01
    6.510866E+02   -1.110777E+02
    5.792654E+02   -2.289219E+02
    4.834982E+02   -2.995316E+02
    3.904427E+02   -3.291469E+02
    3.121589E+02   -3.324695E+02
    2.504644E+02   -3.218686E+02
    2.030389E+02   -3.050774E+02
    1.667392E+02   -2.862932E+02
    1.387939E+02   -2.676000E+02
    1.170549E+02   -2.499420E+02
    9.993555E+01   -2.336803E+02
    8.628308E+01   -2.188902E+02
    7.526093E+01   -2.055139E+02
    6.625847E+01   -1.934381E+02
    5.882570E+01   -1.825322E+02
    5.262733E+01   -1.726669E+02
    4.741064E+01   -1.637220E+02
    4.298295E+01   -1.555896E+02
    3.919565E+01   -1.481746E+02
    3.593291E+01   -1.413936E+02
    3.310352E+01   -1.351744E+02
    3.063498E+01   -1.294541E+02
    2.846917E+01   -1.241780E+02
    2.655909E+01   -1.192986E+02
    2.486644E+01   -1.147748E+02
    2.335974E+01   -1.105705E+02
    2.201296E+01   -1.066541E+02
    2.080441E+01   -1.029979E+02
    1.971593E+01   -9.957759E+01
    1.873220E+01   -9.637160E+01
    1.784030E+01   -9.336083E+01
    1.702922E+01   -9.052837E+01
    1.628955E+01   -8.785913E+01
    1.561321E+01   -8.533967E+01
    1.499319E+01   -8.295796E+01
    1.442346E+01   -8.070317E+01
    1.389875E+01   -7.856558E+01
    1.341446E+01   -7.653644E+01
    1.296654E+01   -7.460781E+01
    1.255142E+01   -7.277248E+01
    1.216600E+01   -7.102390E+01
    1.180752E+01   -6.935612E+01
    1.147356E+01   -6.776371E+01
    1.116194E+01   -6.624175E+01
    1.087070E+01   -6.478570E+01
    1.059812E+01   -6.339139E+01
    1.034265E+01   -6.205502E+01
    1.010288E+01   -6.077309E+01
    9.877546E+00   -5.954234E+01
    9.665534E+00   -5.835978E+01
    9.465831E+00   -5.722267E+01
    9.277502E+00   -5.612847E+01
    9.099680E+00   -5.507482E+01
    8.931583E+00   -5.405950E+01
