 Vespa-Simulation Mixed Metabolite Output
 This file was generated by Vespa-Simulation. You can learn about and download Vespa here:
https://github.com/vespa-mrs/vespa/tree/main/vespa

 
 Output Path/Filename = /home/stud/casperc/bhome/Project1(DeepFit)/DeepFit-data-generation/Initial_spectra_linewidth_10_TE30_1024p
 Output Loop Values = (1,1,1)  ( Loop 1 = 11, Loop 2 = 11, Loop3 Inactive )
 Output Comment
 ---------------------------------------------------------------------------
 
 
 Experiment Information
 ---------------------------------------------------------------------------
 --- Experiment 982623a4-1070-4538-bb82-a4cf0a440db0 ---
 Name: SyntheticDataSetDeepFitTE22
 Public: False
 Created: 2024-10-04T10:31:50
 Comment (abbr.): 
 PI: Casper Cappelen
 b0: 127.740000
 Peak Search PPM low/high: -10.000000 / 10.000000
 Blend tol. PPM/phase: 0.000150 / 50.000000
 Pulse seq.: 43be13ae-de9a-40a1-9a2d-c872d8bjs100 (PRESS Ideal)
 0 User static parameters: 
 28 Metabolites: 2-hydroxyglutarate, alanine, choline-methylene, choline-trimethyl, choline-truncated, creatine, ethanolamine, gaba, glucose-alpha, glucose-beta, glutamate, glutamine, glutathione-glutamate, glutathione-glycine-cysteine, glycine, GPC-gp, GPC-pcholine1, GPC-pcholine2, lactate, myo-inositol, n-acetylaspartate, NAAG-truncated, phosphocreatine, phosphorylcholine-notrimethyl, phosphorylcholine-trimethyl, phosphorylethanolamine, pyruvate, taurine
 28 Simulations: (not shown)
 
 Metabolite Formatting Information
 ---------------------------------------------------------------------------
 Name=2-hydroxyglutarate Abbr=2HG Scale=1.0 Shift=0.0 PPM Start=-7.81 PPM End=7.81
 Name=alanine Abbr=Ala Scale=1.0 Shift=0.0 PPM Start=-7.81 PPM End=7.81
 Name=choline-methylene Abbr=choline-methylene Scale=1.0 Shift=0.0 PPM Start=-7.81 PPM End=7.81
 Name=choline-trimethyl Abbr=choline-trimethyl Scale=1.0 Shift=0.0 PPM Start=-7.81 PPM End=7.81
 Name=choline-truncated Abbr=choline-truncated Scale=1.0 Shift=0.0 PPM Start=-7.81 PPM End=7.81
 Name=creatine Abbr=Cr Scale=1.0 Shift=0.0 PPM Start=-7.81 PPM End=7.81
 Name=ethanolamine Abbr=ETA Scale=1.0 Shift=0.0 PPM Start=-7.81 PPM End=7.81
 Name=gaba Abbr=GABA Scale=1.0 Shift=0.0 PPM Start=-7.81 PPM End=7.81
 Name=glutamate Abbr=Glu Scale=1.0 Shift=0.0 PPM Start=-7.81 PPM End=7.81
 Name=glutamine Abbr=Gln Scale=1.0 Shift=0.0 PPM Start=-7.81 PPM End=7.81
 Name=glutathione-glutamate Abbr=glutathione-glutamate Scale=1.0 Shift=0.0 PPM Start=-7.81 PPM End=7.81
 Name=glutathione-glycine-cysteine Abbr=GSH Scale=1.0 Shift=0.0 PPM Start=-7.81 PPM End=7.81
 Name=glycine Abbr=Gly Scale=1.0 Shift=0.0 PPM Start=-7.81 PPM End=7.81
 Name=GPC-gp Abbr=GPC-gp Scale=1.0 Shift=0.0 PPM Start=-7.81 PPM End=7.81
 Name=GPC-pcholine1 Abbr=GPC-pcholine1 Scale=1.0 Shift=0.0 PPM Start=-7.81 PPM End=7.81
 Name=GPC-pcholine2 Abbr=GPC-pcholine2 Scale=1.0 Shift=0.0 PPM Start=-7.81 PPM End=7.81
 Name=lactate Abbr=Lac Scale=1.0 Shift=0.0 PPM Start=-7.81 PPM End=7.81
 Name=myo-inositol Abbr=mI Scale=1.0 Shift=0.0 PPM Start=-7.81 PPM End=7.81
 Name=n-acetylaspartate Abbr=NAA Scale=1.0 Shift=0.0 PPM Start=-7.18 PPM End=7.81
 Name=NAAG-truncated Abbr=NAAG Scale=1.0 Shift=0.0 PPM Start=-7.81 PPM End=7.81
 Name=phosphocreatine Abbr=PCr Scale=1.0 Shift=0.0 PPM Start=-7.81 PPM End=7.81
 Name=phosphorylcholine-notrimethyl Abbr=phosphorylcholine-notrimethyl Scale=1.0 Shift=0.0 PPM Start=-7.81 PPM End=7.81
 Name=phosphorylcholine-trimethyl Abbr=phosphorylcholine-trimethyl Scale=1.0 Shift=0.0 PPM Start=-7.81 PPM End=7.81
 Name=phosphorylethanolamine Abbr=PE Scale=1.0 Shift=0.0 PPM Start=-7.81 PPM End=7.81
 Name=pyruvate Abbr=Pyr Scale=1.0 Shift=0.0 PPM Start=-7.51 PPM End=7.81
 Name=taurine Abbr=Tau Scale=1.0 Shift=0.0 PPM Start=7.81 PPM End=7.81
 Name=glucose-beta+glucose-alpha Abbr=Glc Scale=1.0 Shift=0.0 PPM Start=-7.81 PPM End=7.81
   Mixture of [metab*scale] = glucose-beta*1.000000 + glucose-alpha*1.000000
 
 ===========================================================================
 This LCModel format RAW file was created using the 
 Vespa-Simulation spectral simulation program using 
 the following settings and parameters 
 
 Sweep Width = 3500.0 Hz 
 Vector Size = 2048 points 
 Apodization = 15.0 Hz Lorentzian broadening
 B0 Field    = 127.74 MHz 
 Ref Singlet = False
  
 This data has been FFTd to be in the FREQUENCY domain
 
 $NMID ID='choline-methylene'
 FMTDAT='(2E16.6)'
 VOLUME=1.0
 TRAMP=1.0
 $END
    3.233592E+00    1.904516E+01
    3.288265E+00    1.938024E+01
    3.346393E+00    1.972796E+01
    3.408282E+00    2.008906E+01
    3.474272E+00    2.046436E+01
    3.544735E+00    2.085476E+01
    3.620094E+00    2.126123E+01
    3.700831E+00    2.168481E+01
    3.787482E+00    2.212665E+01
    3.880637E+00    2.258799E+01
    3.980981E+00    2.307022E+01
    4.089299E+00    2.357484E+01
    4.206469E+00    2.410348E+01
    4.333489E+00    2.465798E+01
    4.471521E+00    2.524033E+01
    4.621902E+00    2.585276E+01
    4.786169E+00    2.649772E+01
    4.966108E+00    2.717794E+01
    5.163808E+00    2.789647E+01
    5.381719E+00    2.865669E+01
    5.622724E+00    2.946241E+01
    5.890242E+00    3.031785E+01
    6.188348E+00    3.122781E+01
    6.521934E+00    3.219761E+01
    6.896900E+00    3.323328E+01
    7.320407E+00    3.434153E+01
    7.801190E+00    3.552987E+01
    8.349923E+00    3.680662E+01
    8.979631E+00    3.818099E+01
    9.706205E+00    3.966323E+01
    1.054927E+01    4.126505E+01
    1.153383E+01    4.299992E+01
    1.269275E+01    4.488279E+01
    1.406955E+01    4.692882E+01
    1.572192E+01    4.915124E+01
    1.772574E+01    5.155772E+01
    2.018017E+01    5.414444E+01
    2.321367E+01    5.688591E+01
    2.698933E+01    5.971658E+01
    3.170320E+01    6.249986E+01
    3.756146E+01    6.498299E+01
    4.471234E+01    6.675184E+01
    5.311937E+01    6.723724E+01
    6.243981E+01    6.584668E+01
    7.205817E+01    6.217066E+01
    8.124027E+01    5.605537E+01
    8.919256E+01    4.760286E+01
    9.517963E+01    3.725636E+01
    9.876004E+01    2.568776E+01
    9.973308E+01    1.352698E+01
    9.793136E+01    1.426454E+00
    9.337545E+01   -9.773827E+00
    8.647026E+01   -1.924335E+01
    7.790643E+01   -2.637243E+01
    6.856772E+01   -3.083112E+01
    5.942729E+01   -3.270692E+01
    5.124083E+01   -3.252910E+01
    4.434010E+01   -3.099490E+01
    3.871749E+01   -2.869558E+01
    3.420634E+01   -2.602944E+01
    3.060393E+01   -2.323062E+01
    2.772626E+01   -2.042233E+01
    2.542562E+01   -1.766006E+01
    2.359254E+01   -1.496185E+01
    2.214994E+01   -1.232940E+01
    2.104300E+01   -9.759642E+00
    2.023035E+01   -7.248301E+00
    1.967832E+01   -4.789570E+00
    1.935825E+01   -2.373168E+00
    1.924862E+01    1.890259E-02
    1.934011E+01    2.411564E+00
    1.963936E+01    4.831948E+00
    2.016989E+01    7.302333E+00
    2.096722E+01    9.831999E+00
    2.206657E+01    1.241703E+01
    2.349832E+01    1.505504E+01
    2.530436E+01    1.775584E+01
    2.755737E+01    2.053094E+01
    3.036759E+01    2.337475E+01
    3.388436E+01    2.624648E+01
    3.829782E+01    2.904654E+01
    4.383438E+01    3.157705E+01
    5.072693E+01    3.347988E+01
    5.912130E+01    3.416083E+01
    6.886559E+01    3.276297E+01
    7.919875E+01    2.836571E+01
    8.866262E+01    2.058933E+01
    9.580752E+01    1.016710E+01
    1.001855E+02   -1.631464E+00
    1.019663E+02   -1.412794E+01
    1.009517E+02   -2.692214E+01
    9.696208E+01   -3.912758E+01
    9.043079E+01   -4.985738E+01
    8.189314E+01   -5.863983E+01
    7.185102E+01   -6.492578E+01
    6.129808E+01   -6.826059E+01
    5.141430E+01   -6.890200E+01
    4.291132E+01   -6.764726E+01
    3.594480E+01   -6.531241E+01
    3.036222E+01   -6.248368E+01
    2.591582E+01   -5.951439E+01
    2.236516E+01   -5.659580E+01
    1.951013E+01   -5.382181E+01
    1.719410E+01   -5.123209E+01
    1.529722E+01   -4.883759E+01
    1.372786E+01   -4.663450E+01
    1.241543E+01   -4.461121E+01
    1.130593E+01   -4.275168E+01
    1.035932E+01   -4.103845E+01
    9.546266E+00   -3.945579E+01
    8.844147E+00   -3.799060E+01
    8.234602E+00   -3.663167E+01
    7.702507E+00   -3.536898E+01
    7.235462E+00   -3.419340E+01
    6.823338E+00   -3.309668E+01
    6.457857E+00   -3.207140E+01
    6.132222E+00   -3.111094E+01
    5.840824E+00   -3.020940E+01
    5.579003E+00   -2.936153E+01
    5.342866E+00   -2.856267E+01
    5.129135E+00   -2.780865E+01
    4.935043E+00   -2.709575E+01
    4.758234E+00   -2.642063E+01
    4.596697E+00   -2.578033E+01
    4.448706E+00   -2.517216E+01
    4.312770E+00   -2.459370E+01
    4.187601E+00   -2.404277E+01
    4.072075E+00   -2.351741E+01
    3.965216E+00   -2.301582E+01
    3.866166E+00   -2.253638E+01
    3.774170E+00   -2.207761E+01
    3.688564E+00   -2.163816E+01
    3.608762E+00   -2.121680E+01
    3.534242E+00   -2.081240E+01
    3.464539E+00   -2.042392E+01
    3.399241E+00   -2.005040E+01
    3.337979E+00   -1.969097E+01
    3.280421E+00   -1.934483E+01
    3.226269E+00   -1.901121E+01
    3.175254E+00   -1.868944E+01
    3.127132E+00   -1.837886E+01
    3.081686E+00   -1.807889E+01
    3.038718E+00   -1.778896E+01
    2.998045E+00   -1.750858E+01
    2.959505E+00   -1.723725E+01
    2.922947E+00   -1.697453E+01
    2.888237E+00   -1.672000E+01
    2.855248E+00   -1.647327E+01
    2.823865E+00   -1.623397E+01
    2.793985E+00   -1.600177E+01
    2.765510E+00   -1.577633E+01
    2.738354E+00   -1.555737E+01
    2.712432E+00   -1.534458E+01
    2.687671E+00   -1.513771E+01
    2.663999E+00   -1.493651E+01
    2.641354E+00   -1.474073E+01
    2.619676E+00   -1.455016E+01
    2.598908E+00   -1.436457E+01
    2.578998E+00   -1.418378E+01
    2.559899E+00   -1.400758E+01
    2.541570E+00   -1.383580E+01
    2.523969E+00   -1.366828E+01
    2.507055E+00   -1.350485E+01
    2.490790E+00   -1.334535E+01
    2.475145E+00   -1.318964E+01
    2.460091E+00   -1.303759E+01
    2.445591E+00   -1.288906E+01
    2.431614E+00   -1.274393E+01
