 Vespa-Simulation Mixed Metabolite Output
 This file was generated by Vespa-Simulation. You can learn about and download Vespa here:
https://github.com/vespa-mrs/vespa/tree/main/vespa

 
 Output Path/Filename = /home/stud/casperc/bhome/Project1(DeepFit)/DeepFit-data-generation/Initial_spectra_linewidth_10_TE30_1024p
 Output Loop Values = (1,1,1)  ( Loop 1 = 11, Loop 2 = 11, Loop3 Inactive )
 Output Comment
 ---------------------------------------------------------------------------
 
 
 Experiment Information
 ---------------------------------------------------------------------------
 --- Experiment 982623a4-1070-4538-bb82-a4cf0a440db0 ---
 Name: SyntheticDataSetDeepFitTE22
 Public: False
 Created: 2024-10-04T10:31:50
 Comment (abbr.): 
 PI: Casper Cappelen
 b0: 127.740000
 Peak Search PPM low/high: -10.000000 / 10.000000
 Blend tol. PPM/phase: 0.000150 / 50.000000
 Pulse seq.: 43be13ae-de9a-40a1-9a2d-c872d8bjs100 (PRESS Ideal)
 0 User static parameters: 
 28 Metabolites: 2-hydroxyglutarate, alanine, choline-methylene, choline-trimethyl, choline-truncated, creatine, ethanolamine, gaba, glucose-alpha, glucose-beta, glutamate, glutamine, glutathione-glutamate, glutathione-glycine-cysteine, glycine, GPC-gp, GPC-pcholine1, GPC-pcholine2, lactate, myo-inositol, n-acetylaspartate, NAAG-truncated, phosphocreatine, phosphorylcholine-notrimethyl, phosphorylcholine-trimethyl, phosphorylethanolamine, pyruvate, taurine
 28 Simulations: (not shown)
 
 Metabolite Formatting Information
 ---------------------------------------------------------------------------
 Name=2-hydroxyglutarate Abbr=2HG Scale=1.0 Shift=0.0 PPM Start=-7.81 PPM End=7.81
 Name=alanine Abbr=Ala Scale=1.0 Shift=0.0 PPM Start=-7.81 PPM End=7.81
 Name=choline-methylene Abbr=choline-methylene Scale=1.0 Shift=0.0 PPM Start=-7.81 PPM End=7.81
 Name=choline-trimethyl Abbr=choline-trimethyl Scale=1.0 Shift=0.0 PPM Start=-7.81 PPM End=7.81
 Name=choline-truncated Abbr=choline-truncated Scale=1.0 Shift=0.0 PPM Start=-7.81 PPM End=7.81
 Name=creatine Abbr=Cr Scale=1.0 Shift=0.0 PPM Start=-7.81 PPM End=7.81
 Name=ethanolamine Abbr=ETA Scale=1.0 Shift=0.0 PPM Start=-7.81 PPM End=7.81
 Name=gaba Abbr=GABA Scale=1.0 Shift=0.0 PPM Start=-7.81 PPM End=7.81
 Name=glutamate Abbr=Glu Scale=1.0 Shift=0.0 PPM Start=-7.81 PPM End=7.81
 Name=glutamine Abbr=Gln Scale=1.0 Shift=0.0 PPM Start=-7.81 PPM End=7.81
 Name=glutathione-glutamate Abbr=glutathione-glutamate Scale=1.0 Shift=0.0 PPM Start=-7.81 PPM End=7.81
 Name=glutathione-glycine-cysteine Abbr=GSH Scale=1.0 Shift=0.0 PPM Start=-7.81 PPM End=7.81
 Name=glycine Abbr=Gly Scale=1.0 Shift=0.0 PPM Start=-7.81 PPM End=7.81
 Name=GPC-gp Abbr=GPC-gp Scale=1.0 Shift=0.0 PPM Start=-7.81 PPM End=7.81
 Name=GPC-pcholine1 Abbr=GPC-pcholine1 Scale=1.0 Shift=0.0 PPM Start=-7.81 PPM End=7.81
 Name=GPC-pcholine2 Abbr=GPC-pcholine2 Scale=1.0 Shift=0.0 PPM Start=-7.81 PPM End=7.81
 Name=lactate Abbr=Lac Scale=1.0 Shift=0.0 PPM Start=-7.81 PPM End=7.81
 Name=myo-inositol Abbr=mI Scale=1.0 Shift=0.0 PPM Start=-7.81 PPM End=7.81
 Name=n-acetylaspartate Abbr=NAA Scale=1.0 Shift=0.0 PPM Start=-7.18 PPM End=7.81
 Name=NAAG-truncated Abbr=NAAG Scale=1.0 Shift=0.0 PPM Start=-7.81 PPM End=7.81
 Name=phosphocreatine Abbr=PCr Scale=1.0 Shift=0.0 PPM Start=-7.81 PPM End=7.81
 Name=phosphorylcholine-notrimethyl Abbr=phosphorylcholine-notrimethyl Scale=1.0 Shift=0.0 PPM Start=-7.81 PPM End=7.81
 Name=phosphorylcholine-trimethyl Abbr=phosphorylcholine-trimethyl Scale=1.0 Shift=0.0 PPM Start=-7.81 PPM End=7.81
 Name=phosphorylethanolamine Abbr=PE Scale=1.0 Shift=0.0 PPM Start=-7.81 PPM End=7.81
 Name=pyruvate Abbr=Pyr Scale=1.0 Shift=0.0 PPM Start=-7.51 PPM End=7.81
 Name=taurine Abbr=Tau Scale=1.0 Shift=0.0 PPM Start=7.81 PPM End=7.81
 Name=glucose-beta+glucose-alpha Abbr=Glc Scale=1.0 Shift=0.0 PPM Start=-7.81 PPM End=7.81
   Mixture of [metab*scale] = glucose-beta*1.000000 + glucose-alpha*1.000000
 
 ===========================================================================
 This LCModel format RAW file was created using the 
 Vespa-Simulation spectral simulation program using 
 the following settings and parameters 
 
 Sweep Width = 3500.0 Hz 
 Vector Size = 2048 points 
 Apodization = 15.0 Hz Lorentzian broadening
 B0 Field    = 127.74 MHz 
 Ref Singlet = False
  
 This data has been FFTd to be in the FREQUENCY domain
 
 $NMID ID='choline-truncated'
 FMTDAT='(2E16.6)'
 VOLUME=1.0
 TRAMP=1.0
 $END
    1.837539E+00    8.535163E+00
    1.843513E+00    8.612523E+00
    1.849651E+00    8.691250E+00
    1.855958E+00    8.771378E+00
    1.862431E+00    8.852944E+00
    1.869069E+00    8.935997E+00
    1.875886E+00    9.020591E+00
    1.882902E+00    9.106770E+00
    1.890133E+00    9.194569E+00
    1.897582E+00    9.284023E+00
    1.905251E+00    9.375181E+00
    1.913148E+00    9.468094E+00
    1.921283E+00    9.562813E+00
    1.929664E+00    9.659384E+00
    1.938289E+00    9.757865E+00
    1.947163E+00    9.858325E+00
    1.956307E+00    9.960836E+00
    1.965745E+00    1.006545E+01
    1.975486E+00    1.017224E+01
    1.985534E+00    1.028125E+01
    1.995901E+00    1.039257E+01
    2.006609E+00    1.050628E+01
    2.017675E+00    1.062244E+01
    2.029103E+00    1.074114E+01
    2.040904E+00    1.086247E+01
    2.053112E+00    1.098652E+01
    2.065764E+00    1.111340E+01
    2.078872E+00    1.124315E+01
    2.092432E+00    1.137589E+01
    2.106459E+00    1.151174E+01
    2.121000E+00    1.165082E+01
    2.136090E+00    1.179323E+01
    2.151720E+00    1.193906E+01
    2.167902E+00    1.208850E+01
    2.184714E+00    1.224170E+01
    2.202204E+00    1.239874E+01
    2.220363E+00    1.255976E+01
    2.239218E+00    1.272496E+01
    2.258842E+00    1.289450E+01
    2.279280E+00    1.306853E+01
    2.300548E+00    1.324722E+01
    2.322679E+00    1.343078E+01
    2.345742E+00    1.361944E+01
    2.369805E+00    1.381339E+01
    2.394919E+00    1.401284E+01
    2.421132E+00    1.421804E+01
    2.448509E+00    1.442924E+01
    2.477131E+00    1.464673E+01
    2.507076E+00    1.487076E+01
    2.538420E+00    1.510165E+01
    2.571247E+00    1.533971E+01
    2.605656E+00    1.558529E+01
    2.641755E+00    1.583874E+01
    2.679657E+00    1.610046E+01
    2.719476E+00    1.637084E+01
    2.761344E+00    1.665033E+01
    2.805413E+00    1.693939E+01
    2.851845E+00    1.723853E+01
    2.900806E+00    1.754827E+01
    2.952476E+00    1.786918E+01
    3.007059E+00    1.820187E+01
    3.064783E+00    1.854701E+01
    3.125893E+00    1.890529E+01
    3.190647E+00    1.927747E+01
    3.259335E+00    1.966439E+01
    3.332286E+00    2.006693E+01
    3.409866E+00    2.048605E+01
    3.492474E+00    2.092279E+01
    3.580551E+00    2.137827E+01
    3.674587E+00    2.185372E+01
    3.775135E+00    2.235047E+01
    3.882806E+00    2.286996E+01
    3.998285E+00    2.341378E+01
    4.122345E+00    2.398365E+01
    4.255859E+00    2.458149E+01
    4.399812E+00    2.520935E+01
    4.555311E+00    2.586952E+01
    4.723608E+00    2.656452E+01
    4.906135E+00    2.729714E+01
    5.104535E+00    2.807047E+01
    5.320694E+00    2.888795E+01
    5.556785E+00    2.975338E+01
    5.815321E+00    3.067101E+01
    6.099221E+00    3.164562E+01
    6.411895E+00    3.268252E+01
    6.757336E+00    3.378771E+01
    7.140238E+00    3.496794E+01
    7.566156E+00    3.623087E+01
    8.041705E+00    3.758517E+01
    8.574811E+00    3.904073E+01
    9.175034E+00    4.060881E+01
    9.853979E+00    4.230231E+01
    1.062583E+01    4.413601E+01
    1.150804E+01    4.612691E+01
    1.252228E+01    4.829455E+01
    1.369568E+01    5.066148E+01
    1.506253E+01    5.325365E+01
    1.666661E+01    5.610083E+01
    1.856440E+01    5.923699E+01
    2.082953E+01    6.270029E+01
    2.355916E+01    6.653266E+01
    2.688288E+01    7.077808E+01
    3.097564E+01    7.547852E+01
    3.607603E+01    8.066499E+01
    4.251213E+01    8.633948E+01
    5.073649E+01    9.243865E+01
    6.136896E+01    9.876275E+01
    7.523503E+01    1.048394E+02
    9.335303E+01    1.096741E+02
    1.167364E+02    1.113395E+02
    1.457029E+02    1.064710E+02
    1.782550E+02    9.023199E+01
    2.078365E+02    5.831846E+01
    2.236536E+02    1.216971E+01
    2.178394E+02   -3.744336E+01
    1.934614E+02   -7.696363E+01
    1.611825E+02   -1.004060E+02
    1.300100E+02   -1.100857E+02
    1.038901E+02   -1.110389E+02
    8.334891E+01   -1.074101E+02
    6.757348E+01   -1.017606E+02
    5.550257E+01   -9.547191E+01
    4.620970E+01   -8.922707E+01
    3.897950E+01   -8.333430E+01
    3.328455E+01   -7.791055E+01
    2.874188E+01   -7.297909E+01
    2.507363E+01   -6.851974E+01
    2.207695E+01   -6.449426E+01
    1.960234E+01   -6.085891E+01
    1.753837E+01   -5.757047E+01
    1.580104E+01   -5.458882E+01
    1.432630E+01   -5.187797E+01
    1.306471E+01   -4.940619E+01
    1.197776E+01   -4.714575E+01
    1.103509E+01   -4.507252E+01
    1.021258E+01   -4.316553E+01
    9.490893E+00   -4.140661E+01
    8.854382E+00   -3.977994E+01
    8.290295E+00   -3.827176E+01
    7.788154E+00   -3.687007E+01
    7.339290E+00   -3.556434E+01
    6.936481E+00   -3.434536E+01
    6.573676E+00   -3.320501E+01
    6.245779E+00   -3.213609E+01
    5.948479E+00   -3.113226E+01
    5.678112E+00   -3.018786E+01
    5.431544E+00   -2.929787E+01
    5.206078E+00   -2.845782E+01
    4.999387E+00   -2.766368E+01
    4.809456E+00   -2.691187E+01
    4.634530E+00   -2.619912E+01
    4.473076E+00   -2.552253E+01
    4.323743E+00   -2.487945E+01
    4.185347E+00   -2.426748E+01
    4.056847E+00   -2.368442E+01
    3.937332E+00   -2.312831E+01
    3.825988E+00   -2.259733E+01
    3.722089E+00   -2.208983E+01
    3.624987E+00   -2.160431E+01
    3.534105E+00   -2.113938E+01
    3.448926E+00   -2.069376E+01
    3.368982E+00   -2.026630E+01
    3.293851E+00   -1.985590E+01
    3.223161E+00   -1.946157E+01
    3.156575E+00   -1.908239E+01
    3.093780E+00   -1.871752E+01
    3.034489E+00   -1.836617E+01
    2.978440E+00   -1.802760E+01
