 Vespa-Simulation Mixed Metabolite Output
 This file was generated by Vespa-Simulation. You can learn about and download Vespa here:
https://github.com/vespa-mrs/vespa/tree/main/vespa

 
 Output Path/Filename = /home/stud/casperc/bhome/Project1(DeepFit)/DeepFit-data-generation/Initial_spectra_linewidth_10_TE30_1024p
 Output Loop Values = (1,1,1)  ( Loop 1 = 11, Loop 2 = 11, Loop3 Inactive )
 Output Comment
 ---------------------------------------------------------------------------
 
 
 Experiment Information
 ---------------------------------------------------------------------------
 --- Experiment 982623a4-1070-4538-bb82-a4cf0a440db0 ---
 Name: SyntheticDataSetDeepFitTE22
 Public: False
 Created: 2024-10-04T10:31:50
 Comment (abbr.): 
 PI: Casper Cappelen
 b0: 127.740000
 Peak Search PPM low/high: -10.000000 / 10.000000
 Blend tol. PPM/phase: 0.000150 / 50.000000
 Pulse seq.: 43be13ae-de9a-40a1-9a2d-c872d8bjs100 (PRESS Ideal)
 0 User static parameters: 
 28 Metabolites: 2-hydroxyglutarate, alanine, choline-methylene, choline-trimethyl, choline-truncated, creatine, ethanolamine, gaba, glucose-alpha, glucose-beta, glutamate, glutamine, glutathione-glutamate, glutathione-glycine-cysteine, glycine, GPC-gp, GPC-pcholine1, GPC-pcholine2, lactate, myo-inositol, n-acetylaspartate, NAAG-truncated, phosphocreatine, phosphorylcholine-notrimethyl, phosphorylcholine-trimethyl, phosphorylethanolamine, pyruvate, taurine
 28 Simulations: (not shown)
 
 Metabolite Formatting Information
 ---------------------------------------------------------------------------
 Name=2-hydroxyglutarate Abbr=2HG Scale=1.0 Shift=0.0 PPM Start=-7.81 PPM End=7.81
 Name=alanine Abbr=Ala Scale=1.0 Shift=0.0 PPM Start=-7.81 PPM End=7.81
 Name=choline-methylene Abbr=choline-methylene Scale=1.0 Shift=0.0 PPM Start=-7.81 PPM End=7.81
 Name=choline-trimethyl Abbr=choline-trimethyl Scale=1.0 Shift=0.0 PPM Start=-7.81 PPM End=7.81
 Name=choline-truncated Abbr=choline-truncated Scale=1.0 Shift=0.0 PPM Start=-7.81 PPM End=7.81
 Name=creatine Abbr=Cr Scale=1.0 Shift=0.0 PPM Start=-7.81 PPM End=7.81
 Name=ethanolamine Abbr=ETA Scale=1.0 Shift=0.0 PPM Start=-7.81 PPM End=7.81
 Name=gaba Abbr=GABA Scale=1.0 Shift=0.0 PPM Start=-7.81 PPM End=7.81
 Name=glutamate Abbr=Glu Scale=1.0 Shift=0.0 PPM Start=-7.81 PPM End=7.81
 Name=glutamine Abbr=Gln Scale=1.0 Shift=0.0 PPM Start=-7.81 PPM End=7.81
 Name=glutathione-glutamate Abbr=glutathione-glutamate Scale=1.0 Shift=0.0 PPM Start=-7.81 PPM End=7.81
 Name=glutathione-glycine-cysteine Abbr=GSH Scale=1.0 Shift=0.0 PPM Start=-7.81 PPM End=7.81
 Name=glycine Abbr=Gly Scale=1.0 Shift=0.0 PPM Start=-7.81 PPM End=7.81
 Name=GPC-gp Abbr=GPC-gp Scale=1.0 Shift=0.0 PPM Start=-7.81 PPM End=7.81
 Name=GPC-pcholine1 Abbr=GPC-pcholine1 Scale=1.0 Shift=0.0 PPM Start=-7.81 PPM End=7.81
 Name=GPC-pcholine2 Abbr=GPC-pcholine2 Scale=1.0 Shift=0.0 PPM Start=-7.81 PPM End=7.81
 Name=lactate Abbr=Lac Scale=1.0 Shift=0.0 PPM Start=-7.81 PPM End=7.81
 Name=myo-inositol Abbr=mI Scale=1.0 Shift=0.0 PPM Start=-7.81 PPM End=7.81
 Name=n-acetylaspartate Abbr=NAA Scale=1.0 Shift=0.0 PPM Start=-7.18 PPM End=7.81
 Name=NAAG-truncated Abbr=NAAG Scale=1.0 Shift=0.0 PPM Start=-7.81 PPM End=7.81
 Name=phosphocreatine Abbr=PCr Scale=1.0 Shift=0.0 PPM Start=-7.81 PPM End=7.81
 Name=phosphorylcholine-notrimethyl Abbr=phosphorylcholine-notrimethyl Scale=1.0 Shift=0.0 PPM Start=-7.81 PPM End=7.81
 Name=phosphorylcholine-trimethyl Abbr=phosphorylcholine-trimethyl Scale=1.0 Shift=0.0 PPM Start=-7.81 PPM End=7.81
 Name=phosphorylethanolamine Abbr=PE Scale=1.0 Shift=0.0 PPM Start=-7.81 PPM End=7.81
 Name=pyruvate Abbr=Pyr Scale=1.0 Shift=0.0 PPM Start=-7.51 PPM End=7.81
 Name=taurine Abbr=Tau Scale=1.0 Shift=0.0 PPM Start=7.81 PPM End=7.81
 Name=glucose-beta+glucose-alpha Abbr=Glc Scale=1.0 Shift=0.0 PPM Start=-7.81 PPM End=7.81
   Mixture of [metab*scale] = glucose-beta*1.000000 + glucose-alpha*1.000000
 
 ===========================================================================
 This LCModel format RAW file was created using the 
 Vespa-Simulation spectral simulation program using 
 the following settings and parameters 
 
 Sweep Width = 3500.0 Hz 
 Vector Size = 2048 points 
 Apodization = 15.0 Hz Lorentzian broadening
 B0 Field    = 127.74 MHz 
 Ref Singlet = False
  
 $NMID ID='choline-methylene'
 FMTDAT='(2E16.6)'
 VOLUME=1.0
 TRAMP=1.0
 $END
    3.695743E+00   -9.316387E-06
    3.562672E+00    7.651674E-01
    3.262719E+00    1.469282E+00
    2.818047E+00    2.074996E+00
    2.259122E+00    2.552333E+00
    1.622396E+00    2.880449E+00
    9.476449E-01    3.048704E+00
    2.751622E-01    3.056985E+00
   -3.569619E-01    2.915266E+00
   -9.153624E-01    2.642489E+00
   -1.373387E+00    2.264843E+00
   -1.712641E+00    1.813601E+00
   -1.923768E+00    1.322710E+00
   -2.006644E+00    8.262505E-01
   -1.969823E+00    3.560671E-01
   -1.829435E+00   -6.037325E-02
   -1.607557E+00   -4.017256E-01
   -1.330231E+00   -6.538817E-01
   -1.025297E+00   -8.105967E-01
   -7.201933E-01   -8.734453E-01
   -4.398771E-01   -8.512227E-01
   -2.050793E-01   -7.587880E-01
   -3.092212E-02   -6.155455E-01
    7.394280E-02   -4.436275E-01
    1.076726E-01   -2.659520E-01
    7.499930E-02   -1.043127E-01
   -1.348035E-02    2.236391E-02
   -1.424610E-01    9.946182E-02
   -2.934126E-01    1.177179E-01
   -4.462519E-01    7.381203E-02
   -5.810977E-01   -2.955533E-02
   -6.799321E-01   -1.840566E-01
   -7.280777E-01   -3.765366E-01
   -7.153582E-01   -5.902405E-01
   -6.368685E-01   -8.062344E-01
   -4.933489E-01   -1.004958E+00
   -2.910228E-01   -1.167864E+00
   -4.113898E-02   -1.278844E+00
    2.410147E-01   -1.325527E+00
    5.372839E-01   -1.300194E+00
    8.280021E-01   -1.200378E+00
    1.093575E+00   -1.028994E+00
    1.315835E+00   -7.941527E-01
    1.479445E+00   -5.084716E-01
    1.572945E+00   -1.881485E-01
    1.589528E+00    1.481702E-01
    1.527497E+00    4.808333E-01
    1.390273E+00    7.905224E-01
    1.186124E+00    1.059538E+00
    9.274321E-01    1.273087E+00
    6.298478E-01    1.420120E+00
    3.110584E-01    1.494070E+00
   -1.042896E-02    1.493119E+00
   -3.165043E-01    1.420182E+00
   -5.907522E-01    1.282561E+00
   -8.194368E-01    1.091265E+00
   -9.922900E-01    8.601524E-01
   -1.103079E+00    6.048833E-01
   -1.149878E+00    3.416891E-01
   -1.134897E+00    8.638338E-02
   -1.064178E+00   -1.467536E-01
   -9.469504E-01   -3.459385E-01
   -7.948142E-01   -5.024130E-01
   -6.208081E-01   -6.109505E-01
   -4.383524E-01   -6.700346E-01
   -2.603463E-01   -6.816425E-01
   -9.824602E-02   -6.509322E-01
    3.871650E-02   -5.856484E-01
    1.439772E-01   -4.953591E-01
    2.140034E-01   -3.906314E-01
    2.483339E-01   -2.821650E-01
    2.494306E-01   -1.799389E-01
    2.222509E-01   -9.251433E-02
    1.737216E-01   -2.643397E-02
    1.120537E-01    1.418599E-02
    4.599496E-02    2.781725E-02
   -1.591298E-02    1.551577E-02
   -6.603499E-02   -1.930862E-02
   -9.822845E-02   -7.129285E-02
   -1.082977E-01   -1.336520E-01
   -9.425817E-02   -1.988169E-01
   -5.643600E-02   -2.590817E-01
    2.636727E-03   -3.072627E-01
    7.848300E-02   -3.372819E-01
    1.651241E-01   -3.446396E-01
    2.555566E-01   -3.267558E-01
    3.423574E-01   -2.831532E-01
    4.183032E-01   -2.154379E-01
    4.768976E-01   -1.271826E-01
    5.128949E-01   -2.361337E-02
    5.226861E-01    8.884926E-02
    5.045419E-01    2.030259E-01
    4.587344E-01    3.115549E-01
    3.874629E-01    4.074674E-01
    2.946989E-01    4.846253E-01
    1.858628E-01    5.381860E-01
    6.737216E-02    5.649301E-01
   -5.376493E-02    5.634222E-01
   -1.704936E-01    5.340922E-01
   -2.761800E-01    4.791565E-01
   -3.650964E-01    4.023929E-01
   -4.327179E-01    3.088624E-01
   -4.760284E-01    2.045158E-01
   -4.936746E-01    9.571951E-02
   -4.859591E-01   -1.113101E-02
   -4.547725E-01   -1.100719E-01
   -4.033784E-01   -1.959830E-01
   -3.361333E-01   -2.648321E-01
   -2.581381E-01   -3.139243E-01
   -1.748243E-01   -3.420248E-01
   -9.160216E-02   -3.493204E-01
   -1.346742E-02   -3.373467E-01
    5.531200E-02   -3.087895E-01
    1.114333E-01   -2.672268E-01
    1.527724E-01   -2.168000E-01
    1.783801E-01   -1.619029E-01
    1.885148E-01   -1.068364E-01
    1.845235E-01   -5.550590E-02
    1.686614E-01   -1.116335E-02
    1.438569E-01    2.378525E-02
    1.134423E-01    4.789308E-02
    8.086036E-02    6.073147E-02
    4.940075E-02    6.281569E-02
    2.194675E-02    5.551778E-02
    7.762465E-04    4.089051E-02
   -1.257969E-02    2.145515E-02
   -1.741160E-02   -3.354086E-05
   -1.383893E-02   -2.083209E-02
   -2.747784E-03   -3.842857E-02
    1.432256E-02   -5.074195E-02
    3.534265E-02   -5.627239E-02
    5.798554E-02   -5.419877E-02
    7.983137E-02   -4.442092E-02
    9.858076E-02   -2.752684E-02
    1.122263E-01   -4.736373E-03
    1.192166E-01    2.222980E-02
    1.185661E-01    5.130239E-02
    1.099181E-01    8.023924E-02
    9.355653E-02    1.068076E-01
    7.037309E-02    1.289554E-01
    4.176229E-02    1.449788E-01
    9.532738E-03    1.536219E-01
   -2.425815E-02    1.541753E-01
   -5.745893E-02    1.465105E-01
   -8.798440E-02    1.310736E-01
   -1.139601E-01    1.088415E-01
   -1.338700E-01    8.121731E-02
   -1.466217E-01    4.994216E-02
   -1.516295E-01    1.694554E-02
   -1.488308E-01   -1.579295E-02
   -1.386697E-01   -4.638256E-02
   -1.220440E-01   -7.314775E-02
   -1.002279E-01   -9.472861E-02
   -7.475059E-02   -1.101762E-01
   -4.730098E-02   -1.189680E-01
   -1.959102E-02   -1.210387E-01
    6.758657E-03   -1.167541E-01
    3.032309E-02   -1.068590E-01
    4.995319E-02   -9.240553E-02
    6.485169E-02   -7.465218E-02
    7.457815E-02   -5.497458E-02
    7.906996E-02   -3.475628E-02
    7.861383E-02   -1.529416E-02
    7.379837E-02    2.284756E-03
    6.544866E-02    1.708823E-02
    5.454952E-02    2.849969E-02
    4.215716E-02    3.620800E-02
    2.932338E-02    4.018812E-02
    1.701603E-02    4.068730E-02
    6.056475E-03    3.817940E-02
