 Vespa-Simulation Mixed Metabolite Output
 This file was generated by Vespa-Simulation. You can learn about and download Vespa here:
https://github.com/vespa-mrs/vespa/tree/main/vespa

 
 Output Path/Filename = /home/stud/casperc/bhome/Project1(DeepFit)/DeepFit-data-generation/Initial_spectra_linewidth_10_TE30_1024p
 Output Loop Values = (1,1,1)  ( Loop 1 = 15, Loop 2 = 15, Loop3 Inactive )
 Output Comment
 ---------------------------------------------------------------------------
 
 
 Experiment Information
 ---------------------------------------------------------------------------
 --- Experiment 32780d98-dc11-42ab-ab27-92876fb0934a ---
 Name: PRESS_3T_30TE
 Public: False
 Created: 2023-12-19T15:15:29
 Comment (abbr.): LC-Model basis set clone +2-HG
 PI: Casper Cappelen
 b0: 127.740000
 Peak Search PPM low/high: 0.000000 / 10.000000
 Blend tol. PPM/phase: 0.001500 / 50.000000
 Pulse seq.: 43be13ae-de9a-40a1-9a2d-c872d8bjs100 (PRESS Ideal)
 0 User static parameters: 
 19 Metabolites: 2-hydroxyglutarate, GPC-gp, NAAG-truncated, alanine, aspartate, creatine, gaba, glucose-alpha, glucose-beta, glutamate, glutamine, glutathione-glutamate, lactate, myo-inositol, n-acetylaspartate, phosphocreatine, phosphorylcholine-notrimethyl, scyllo-inositol, taurine
 19 Simulations: (not shown)
 
 Metabolite Formatting Information
 ---------------------------------------------------------------------------
 Name=GPC-gp Abbr=GPC Scale=1.0 Shift=0.0 PPM Start=0.0 PPM End=4.5
 Name=NAAG-truncated Abbr=NAAG Scale=1.0 Shift=0.0 PPM Start=0.0 PPM End=4.5
 Name=alanine Abbr=Ala Scale=1.0 Shift=0.0 PPM Start=0.0 PPM End=4.5
 Name=aspartate Abbr=Asp Scale=1.0 Shift=0.0 PPM Start=0.0 PPM End=4.5
 Name=creatine Abbr=Cr Scale=1.0 Shift=0.1 PPM Start=0.0 PPM End=4.5
 Name=gaba Abbr=GABA Scale=1.0 Shift=0.0 PPM Start=0.0 PPM End=4.5
 Name=glutamate Abbr=Glu Scale=1.0 Shift=0.0 PPM Start=0.0 PPM End=4.5
 Name=glutamine Abbr=Gln Scale=1.0 Shift=0.0 PPM Start=0.0 PPM End=4.5
 Name=glutathione-glutamate Abbr=GSH Scale=1.0 Shift=0.0 PPM Start=0.0 PPM End=4.5
 Name=lactate Abbr=Lac Scale=1.0 Shift=0.0 PPM Start=0.0 PPM End=4.5
 Name=myo-inositol Abbr=mI Scale=1.0 Shift=0.0 PPM Start=0.0 PPM End=4.5
 Name=n-acetylaspartate Abbr=NAA Scale=1.0 Shift=0.0 PPM Start=0.0 PPM End=4.5
 Name=phosphocreatine Abbr=PCr Scale=1.0 Shift=0.0 PPM Start=0.0 PPM End=4.5
 Name=phosphorylcholine-notrimethyl Abbr=PCho Scale=1.0 Shift=0.0 PPM Start=0.0 PPM End=4.5
 Name=taurine Abbr=Tau Scale=1.0 Shift=0.0 PPM Start=0.0 PPM End=4.5
 Name=glucose-alpha+glucose-beta Abbr=Glc Scale=1.0 Shift=0.0 PPM Start=0.0 PPM End=4.5
   Mixture of [metab*scale] = glucose-alpha*1.000000 + glucose-beta*1.000000
 
 ===========================================================================
 This LCModel format RAW file was created using the 
 Vespa-Simulation spectral simulation program using 
 the following settings and parameters 
 
 Sweep Width = 574.83 Hz 
 Vector Size = 1024 points 
 Apodization = 10.0 Hz Gaussian broadening
 B0 Field    = 127.74 MHz 
 Ref Singlet = False
  
 $NMID ID='Cr'
 FMTDAT='(2E16.6)'
 VOLUME=1.0
 TRAMP=1.0
 $END
    5.000000E+00    8.673617E-19
   -6.076202E-01    4.065095E+00
   -1.617416E+00   -9.634553E-01
    9.211152E-01    1.411077E+00
   -3.875620E+00    5.003842E-01
    1.221322E-01   -4.860267E+00
    4.025228E+00    6.880410E-01
   -9.655402E-01    1.725653E+00
    1.140147E+00   -8.453030E-01
    3.835842E-01    3.487653E+00
   -4.464052E+00   -2.242920E-01
    7.277228E-01   -3.763226E+00
    1.719594E+00    9.251952E-01
   -7.456257E-01   -8.465611E-01
    2.961874E+00   -2.733067E-01
   -2.918632E-01    3.874123E+00
   -3.322239E+00   -7.200173E-01
    8.458701E-01   -1.604327E+00
   -5.700613E-01    6.326305E-01
   -1.808721E-01   -2.373275E+00
    3.176776E+00    3.188644E-01
   -6.673000E-01    2.769779E+00
   -1.403868E+00   -7.364118E-01
    5.162873E-01    3.395453E-01
   -1.793780E+00    1.113642E-01
    3.085322E-01   -2.461268E+00
    2.180934E+00    5.799094E-01
   -6.094235E-01    1.153741E+00
    1.689853E-01   -4.049444E-01
    6.428710E-02    1.278502E+00
   -1.801685E+00   -2.706922E-01
    4.730554E-01   -1.622005E+00
    8.914469E-01    4.786636E-01
   -3.048245E-01   -5.815540E-02
    8.590064E-01   -3.545739E-02
   -2.180522E-01    1.246043E+00
   -1.139466E+00   -3.625048E-01
    3.563933E-01   -6.480897E-01
    3.031747E-03    2.198108E-01
   -1.942735E-02   -5.438434E-01
    8.141479E-01    1.624860E-01
   -2.611371E-01    7.561575E-01
   -4.436225E-01   -2.512901E-01
    1.515268E-01   -2.901296E-02
   -3.242819E-01    1.116525E-02
    1.125416E-01   -5.025383E-01
    4.740308E-01    1.769343E-01
   -1.676603E-01    2.860615E-01
   -3.391619E-02   -9.964682E-02
    7.011206E-03    1.820056E-01
   -2.930275E-01   -7.267659E-02
    1.128270E-01   -2.807310E-01
    1.738460E-01    1.057844E-01
   -6.239038E-02    2.875873E-02
    9.608298E-02   -4.755228E-03
   -4.385300E-02    1.613971E-01
   -1.570646E-01   -6.773851E-02
    6.309356E-02   -9.960210E-02
    2.061790E-02    3.712718E-02
   -3.308596E-03   -4.766674E-02
    8.396574E-02    2.476154E-02
   -3.830355E-02    8.301882E-02
   -5.381501E-02   -3.556032E-02
    2.096763E-02   -1.313420E-02
   -2.219770E-02    2.244297E-03
    1.309619E-02   -4.125711E-02
    4.145630E-02    2.040612E-02
   -1.893488E-02    2.742663E-02
   -7.604211E-03   -1.122431E-02
    1.440897E-03    9.689308E-03
   -1.914465E-02   -6.493081E-03
    1.024466E-02   -1.955807E-02
    1.318744E-02    9.523722E-03
   -5.689812E-03    4.050131E-03
    3.956813E-03   -8.637882E-04
   -3.018913E-03    8.389009E-03
   -8.717120E-03   -4.848215E-03
    4.524321E-03   -5.983263E-03
    1.998764E-03    2.729266E-03
   -4.812961E-04   -1.507822E-03
    3.471043E-03    1.316100E-03
   -2.163093E-03    3.670570E-03
   -2.561894E-03   -2.029899E-03
    1.238086E-03   -9.182852E-04
   -5.342480E-04    2.491366E-04
    5.380643E-04   -1.355940E-03
    1.460163E-03    9.099974E-04
   -8.600745E-04    1.035364E-03
   -3.939985E-04   -5.309187E-04
    1.199467E-04    1.750782E-04
   -5.000536E-04   -2.061856E-04
    3.610178E-04   -5.487475E-04
    3.949444E-04    3.441703E-04
   -2.151515E-04    1.582294E-04
    5.263182E-05   -5.380212E-05
   -7.400326E-05    1.740779E-04
   -1.948220E-04   -1.350751E-04
    1.300669E-04   -1.422109E-04
    5.957474E-05    8.237682E-05
   -2.252423E-05   -1.431250E-05
    5.719796E-05    2.485055E-05
   -4.766542E-05    6.534162E-05
   -4.833947E-05   -4.642163E-05
    2.979538E-05   -2.105459E-05
   -3.429261E-06    8.814564E-06
    7.794996E-06   -1.773733E-05
    2.070244E-05    1.586442E-05
   -1.564745E-05    1.551159E-05
   -6.990940E-06   -1.017972E-05
    3.229273E-06    6.807409E-07
   -5.190787E-06   -2.278636E-06
    4.979790E-06   -6.196403E-06
    4.698951E-06    4.981315E-06
   -3.285054E-06    2.182356E-06
    9.048607E-08   -1.108927E-06
   -6.186094E-07    1.433475E-06
   -1.751903E-06   -1.474324E-06
    1.497716E-06   -1.343797E-06
    6.408760E-07    1.001272E-06
   -3.573272E-07    4.204471E-09
    3.735529E-07    1.551555E-07
   -4.116388E-07    4.678921E-07
   -3.627848E-07   -4.253134E-07
    2.882592E-07   -1.770862E-07
    8.495955E-09    1.081420E-07
    3.565162E-08   -9.186098E-08
    1.180452E-07    1.083758E-07
   -1.140747E-07    9.245620E-08
   -4.605794E-08   -7.838483E-08
    3.076326E-08   -3.858145E-09
   -2.131937E-08   -7.395466E-09
    2.690152E-08   -2.813377E-08
    2.224224E-08    2.889849E-08
   -2.013307E-08    1.127742E-08
   -1.293325E-09   -8.231490E-09
   -1.346398E-09    4.670573E-09
   -6.334364E-09   -6.294524E-09
    6.914608E-09   -5.050736E-09
    2.599793E-09    4.884599E-09
   -2.072935E-09    3.673313E-10
    9.662262E-10    2.008483E-10
   -1.387973E-09    1.347428E-09
   -1.082594E-09   -1.562618E-09
    1.119458E-09   -5.642863E-10
    9.255589E-11    4.915650E-10
    1.899240E-11   -1.888640E-10
    2.708322E-10    2.883170E-10
   -3.335433E-10    2.189943E-10
   -1.153087E-10   -2.423599E-10
    1.098131E-10   -2.112183E-11
   -3.490999E-11    1.387282E-12
    5.640222E-11   -5.144279E-11
    4.180727E-11    6.724279E-11
   -4.956836E-11    2.218019E-11
   -4.412674E-12   -2.311932E-11
    1.341830E-12    6.109280E-12
   -9.236189E-12   -1.038525E-11
    1.280328E-11   -7.531665E-12
    4.015200E-12    9.577508E-12
   -4.588709E-12    8.489063E-13
    1.013951E-12   -4.515726E-13
   -1.798693E-12    1.567987E-12
   -1.280317E-12   -2.302294E-12
    1.748317E-12   -6.838308E-13
    1.508424E-13    8.588690E-13
   -1.155326E-13   -1.599495E-13
    2.517991E-13    2.927937E-13
   -3.909675E-13    2.053530E-13
   -1.095207E-13   -3.015202E-13
    1.516362E-13   -2.478388E-14
   -2.404924E-14    2.531761E-14
    4.474816E-14   -3.827042E-14
    3.107589E-14    6.269585E-14
   -4.913140E-14    1.648573E-14
   -3.765256E-15   -2.525914E-14
    4.957070E-15    3.458120E-15
   -5.509106E-15   -6.412236E-15
    9.493355E-15   -4.436801E-15
    2.330533E-15    7.563990E-15
   -3.970615E-15    5.270710E-16
    4.773426E-16   -8.846313E-16
   -8.599383E-16    7.517753E-16
   -5.976431E-16   -1.357194E-15
    1.100279E-15   -3.091164E-16
    6.768796E-17    5.891161E-16
   -1.454823E-16   -6.349172E-17
    9.735570E-17    1.076627E-16
   -1.831702E-16    7.595636E-17
   -3.842004E-17   -1.512231E-16
    8.251193E-17   -7.904029E-18
   -8.164700E-18    2.219690E-17
    1.253885E-17   -1.198026E-17
    9.109642E-18    2.333477E-17
   -1.963802E-17    4.467154E-18
   -8.252813E-19   -1.091105E-17
    3.155943E-18    1.017355E-18
   -1.403016E-18   -1.351316E-18
    2.805523E-18   -1.031240E-18
    4.849917E-19    2.409566E-18
   -1.362392E-18    7.438317E-20
    1.229167E-19   -4.194147E-19
   -1.336486E-19    1.566358E-19
   -1.102368E-19   -3.182810E-19
    2.793506E-19   -4.897173E-20
    5.270053E-21    1.606477E-19
   -5.221535E-20   -1.438549E-20
    1.670041E-20    1.195962E-20
   -3.406385E-20    1.113464E-20
