 Vespa-Simulation Mixed Metabolite Output
 This file was generated by Vespa-Simulation. You can learn about and download Vespa here:
https://github.com/vespa-mrs/vespa/tree/main/vespa

 
 Output Path/Filename = /home/stud/casperc/bhome/Project1(DeepFit)/DeepFit-data-generation/Initial_spectra_linewidth_10_TE30_1024p
 Output Loop Values = (1,1,1)  ( Loop 1 = 15, Loop 2 = 15, Loop3 Inactive )
 Output Comment
 ---------------------------------------------------------------------------
 
 
 Experiment Information
 ---------------------------------------------------------------------------
 --- Experiment 32780d98-dc11-42ab-ab27-92876fb0934a ---
 Name: PRESS_3T_30TE
 Public: False
 Created: 2023-12-19T15:15:29
 Comment (abbr.): LC-Model basis set clone +2-HG
 PI: Casper Cappelen
 b0: 127.740000
 Peak Search PPM low/high: 0.000000 / 10.000000
 Blend tol. PPM/phase: 0.001500 / 50.000000
 Pulse seq.: 43be13ae-de9a-40a1-9a2d-c872d8bjs100 (PRESS Ideal)
 0 User static parameters: 
 19 Metabolites: 2-hydroxyglutarate, GPC-gp, NAAG-truncated, alanine, aspartate, creatine, gaba, glucose-alpha, glucose-beta, glutamate, glutamine, glutathione-glutamate, lactate, myo-inositol, n-acetylaspartate, phosphocreatine, phosphorylcholine-notrimethyl, scyllo-inositol, taurine
 19 Simulations: (not shown)
 
 Metabolite Formatting Information
 ---------------------------------------------------------------------------
 Name=GPC-gp Abbr=GPC Scale=1.0 Shift=0.0 PPM Start=0.0 PPM End=4.5
 Name=NAAG-truncated Abbr=NAAG Scale=1.0 Shift=0.0 PPM Start=0.0 PPM End=4.5
 Name=alanine Abbr=Ala Scale=1.0 Shift=0.0 PPM Start=0.0 PPM End=4.5
 Name=aspartate Abbr=Asp Scale=1.0 Shift=0.0 PPM Start=0.0 PPM End=4.5
 Name=creatine Abbr=Cr Scale=1.0 Shift=0.1 PPM Start=0.0 PPM End=4.5
 Name=gaba Abbr=GABA Scale=1.0 Shift=0.0 PPM Start=0.0 PPM End=4.5
 Name=glutamate Abbr=Glu Scale=1.0 Shift=0.0 PPM Start=0.0 PPM End=4.5
 Name=glutamine Abbr=Gln Scale=1.0 Shift=0.0 PPM Start=0.0 PPM End=4.5
 Name=glutathione-glutamate Abbr=GSH Scale=1.0 Shift=0.0 PPM Start=0.0 PPM End=4.5
 Name=lactate Abbr=Lac Scale=1.0 Shift=0.0 PPM Start=0.0 PPM End=4.5
 Name=myo-inositol Abbr=mI Scale=1.0 Shift=0.0 PPM Start=0.0 PPM End=4.5
 Name=n-acetylaspartate Abbr=NAA Scale=1.0 Shift=0.0 PPM Start=0.0 PPM End=4.5
 Name=phosphocreatine Abbr=PCr Scale=1.0 Shift=0.0 PPM Start=0.0 PPM End=4.5
 Name=phosphorylcholine-notrimethyl Abbr=PCho Scale=1.0 Shift=0.0 PPM Start=0.0 PPM End=4.5
 Name=taurine Abbr=Tau Scale=1.0 Shift=0.0 PPM Start=0.0 PPM End=4.5
 Name=glucose-alpha+glucose-beta Abbr=Glc Scale=1.0 Shift=0.0 PPM Start=0.0 PPM End=4.5
   Mixture of [metab*scale] = glucose-alpha*1.000000 + glucose-beta*1.000000
 
 ===========================================================================
 This LCModel format RAW file was created using the 
 Vespa-Simulation spectral simulation program using 
 the following settings and parameters 
 
 Sweep Width = 574.83 Hz 
 Vector Size = 1024 points 
 Apodization = 10.0 Hz Gaussian broadening
 B0 Field    = 127.74 MHz 
 Ref Singlet = False
  
 This data has been FFTd to be in the FREQUENCY domain
 
 $NMID ID='Cr'
 FMTDAT='(2E16.6)'
 VOLUME=1.0
 TRAMP=1.0
 $END
    2.499965E+00    2.694914E+00
    2.499954E+00    2.715329E+00
    2.499945E+00    2.735940E+00
    2.499937E+00    2.756751E+00
    2.499931E+00    2.777765E+00
    2.499927E+00    2.798986E+00
    2.499925E+00    2.820416E+00
    2.499926E+00    2.842061E+00
    2.499928E+00    2.863923E+00
    2.499932E+00    2.886006E+00
    2.499938E+00    2.908315E+00
    2.499945E+00    2.930854E+00
    2.499953E+00    2.953628E+00
    2.499962E+00    2.976641E+00
    2.499972E+00    2.999897E+00
    2.499981E+00    3.023403E+00
    2.499991E+00    3.047164E+00
    2.500001E+00    3.071184E+00
    2.500010E+00    3.095469E+00
    2.500018E+00    3.120026E+00
    2.500025E+00    3.144860E+00
    2.500032E+00    3.169977E+00
    2.500038E+00    3.195385E+00
    2.500042E+00    3.221089E+00
    2.500047E+00    3.247096E+00
    2.500050E+00    3.273413E+00
    2.500053E+00    3.300047E+00
    2.500056E+00    3.327005E+00
    2.500058E+00    3.354295E+00
    2.500060E+00    3.381924E+00
    2.500062E+00    3.409899E+00
    2.500063E+00    3.438230E+00
    2.500064E+00    3.466923E+00
    2.500064E+00    3.495988E+00
    2.500063E+00    3.525434E+00
    2.500062E+00    3.555270E+00
    2.500059E+00    3.585506E+00
    2.500055E+00    3.616152E+00
    2.500050E+00    3.647218E+00
    2.500044E+00    3.678716E+00
    2.500036E+00    3.710655E+00
    2.500028E+00    3.743049E+00
    2.500020E+00    3.775908E+00
    2.500011E+00    3.809244E+00
    2.500003E+00    3.843071E+00
    2.499995E+00    3.877401E+00
    2.499988E+00    3.912248E+00
    2.499982E+00    3.947624E+00
    2.499976E+00    3.983545E+00
    2.499972E+00    4.020025E+00
    2.499970E+00    4.057079E+00
    2.499968E+00    4.094723E+00
    2.499968E+00    4.132975E+00
    2.499969E+00    4.171850E+00
    2.499971E+00    4.211367E+00
    2.499974E+00    4.251545E+00
    2.499977E+00    4.292403E+00
    2.499980E+00    4.333961E+00
    2.499984E+00    4.376242E+00
    2.499987E+00    4.419266E+00
    2.499991E+00    4.463058E+00
    2.499994E+00    4.507641E+00
    2.499996E+00    4.553040E+00
    2.499998E+00    4.599283E+00
    2.499999E+00    4.646397E+00
    2.500000E+00    4.694410E+00
    2.500001E+00    4.743352E+00
    2.500001E+00    4.793255E+00
    2.500000E+00    4.844152E+00
    2.500000E+00    4.896077E+00
    2.499999E+00    4.949067E+00
    2.499999E+00    5.003157E+00
    2.499998E+00    5.058389E+00
    2.499997E+00    5.114804E+00
    2.499997E+00    5.172446E+00
    2.499996E+00    5.231359E+00
    2.499996E+00    5.291593E+00
    2.499996E+00    5.353197E+00
    2.499997E+00    5.416227E+00
    2.499997E+00    5.480736E+00
    2.499999E+00    5.546786E+00
    2.500000E+00    5.614438E+00
    2.500002E+00    5.683760E+00
    2.500004E+00    5.754819E+00
    2.500007E+00    5.827692E+00
    2.500009E+00    5.902456E+00
    2.500012E+00    5.979194E+00
    2.500014E+00    6.057995E+00
    2.500016E+00    6.138953E+00
    2.500018E+00    6.222168E+00
    2.500019E+00    6.307746E+00
    2.500019E+00    6.395801E+00
    2.500019E+00    6.486452E+00
    2.500019E+00    6.579831E+00
    2.500018E+00    6.676074E+00
    2.500016E+00    6.775329E+00
    2.500014E+00    6.877756E+00
    2.500012E+00    6.983523E+00
    2.500010E+00    7.092814E+00
    2.500007E+00    7.205827E+00
    2.500005E+00    7.322773E+00
    2.500002E+00    7.443882E+00
    2.500000E+00    7.569401E+00
    2.499998E+00    7.699602E+00
    2.499996E+00    7.834775E+00
    2.499995E+00    7.975239E+00
    2.499995E+00    8.121341E+00
    2.499995E+00    8.273462E+00
    2.499995E+00    8.432018E+00
    2.499996E+00    8.597466E+00
    2.499997E+00    8.770311E+00
    2.499999E+00    8.951111E+00
    2.500002E+00    9.140486E+00
    2.500006E+00    9.339126E+00
    2.500012E+00    9.547803E+00
    2.500023E+00    9.767385E+00
    2.500042E+00    9.998852E+00
    2.500079E+00    1.024332E+01
    2.500149E+00    1.050205E+01
    2.500281E+00    1.077653E+01
    2.500528E+00    1.106844E+01
    2.500980E+00    1.137977E+01
    2.501796E+00    1.171284E+01
    2.503240E+00    1.207042E+01
    2.505750E+00    1.245577E+01
    2.510033E+00    1.287279E+01
    2.517207E+00    1.332611E+01
    2.529003E+00    1.382124E+01
    2.548042E+00    1.436463E+01
    2.578199E+00    1.496381E+01
    2.625082E+00    1.562733E+01
    2.696600E+00    1.636472E+01
    2.803650E+00    1.718615E+01
    2.960850E+00    1.810198E+01
    3.187295E+00    1.912191E+01
    3.507218E+00    2.025385E+01
    3.950444E+00    2.150235E+01
    4.552462E+00    2.286669E+01
    5.353949E+00    2.433860E+01
    6.399548E+00    2.589985E+01
    7.735753E+00    2.751991E+01
    9.407819E+00    2.915390E+01
    1.145570E+01    3.074133E+01
    1.390920E+01    3.220594E+01
    1.678262E+01    3.345712E+01
    2.006941E+01    3.439306E+01
    2.373751E+01    3.490578E+01
    2.772591E+01    3.488812E+01
    3.194334E+01    3.424194E+01
    3.626947E+01    3.288728E+01
    4.055908E+01    3.077133E+01
    4.464919E+01    2.787630E+01
    4.836876E+01    2.422517E+01
    5.155031E+01    1.988432E+01
    5.404226E+01    1.496262E+01
    5.572087E+01    9.606537E+00
    5.650046E+01    3.991647E+00
    5.634059E+01   -1.688718E+00
    5.524959E+01   -7.236697E+00
    5.328381E+01   -1.246356E+01
    5.054281E+01   -1.720242E+01
    4.716099E+01   -2.131879E+01
    4.329672E+01   -2.471784E+01
    3.912006E+01   -2.734796E+01
    3.480054E+01   -2.920046E+01
    3.049609E+01   -3.030574E+01
    2.634415E+01   -3.072679E+01
    2.245553E+01   -3.055075E+01
    1.891125E+01   -2.987979E+01
    1.576224E+01   -2.882225E+01
    1.303147E+01   -2.748469E+01
    1.071785E+01   -2.596559E+01
    8.801208E+00   -2.435098E+01
    7.247735E+00   -2.271183E+01
    6.015165E+00   -2.110326E+01
    5.057416E+00   -1.956512E+01
    4.328325E+00   -1.812351E+01
    3.784402E+00   -1.679300E+01
    3.386632E+00   -1.557905E+01
    3.101423E+00   -1.448035E+01
    2.900875E+00   -1.349101E+01
    2.762560E+00   -1.260237E+01
    2.668980E+00   -1.180437E+01
    2.606864E+00   -1.108666E+01
    2.566407E+00   -1.043924E+01
    2.540550E+00   -9.852874E+00
    2.524332E+00   -9.319364E+00
    2.514350E+00   -8.831548E+00
    2.508320E+00   -8.383296E+00
    2.504745E+00   -7.969411E+00
    2.502666E+00   -7.585521E+00
    2.501478E+00   -7.227952E+00
    2.500812E+00   -6.893615E+00
    2.500445E+00   -6.579906E+00
    2.500246E+00   -6.284618E+00
    2.500138E+00   -6.005867E+00
    2.500079E+00   -5.742035E+00
    2.500045E+00   -5.491723E+00
    2.500024E+00   -5.253710E+00
    2.500010E+00   -5.026926E+00
    2.499999E+00   -4.810429E+00
    2.499991E+00   -4.603380E+00
    2.499984E+00   -4.405033E+00
    2.499979E+00   -4.214719E+00
    2.499975E+00   -4.031835E+00
    2.499974E+00   -3.855840E+00
