 Vespa-Simulation Mixed Metabolite Output
 This file was generated by Vespa-Simulation. You can learn about and download Vespa here:
https://github.com/vespa-mrs/vespa/tree/main/vespa

 
 Output Path/Filename = /home/stud/casperc/bhome/Project1(DeepFit)/DeepFit-data-generation/Initial_spectra_linewidth_10_TE30_1024p
 Output Loop Values = (1,1,1)  ( Loop 1 = 11, Loop 2 = 11, Loop3 Inactive )
 Output Comment
 ---------------------------------------------------------------------------
 
 
 Experiment Information
 ---------------------------------------------------------------------------
 --- Experiment 982623a4-1070-4538-bb82-a4cf0a440db0 ---
 Name: SyntheticDataSetDeepFitTE22
 Public: False
 Created: 2024-10-04T10:31:50
 Comment (abbr.): 
 PI: Casper Cappelen
 b0: 127.740000
 Peak Search PPM low/high: -10.000000 / 10.000000
 Blend tol. PPM/phase: 0.000150 / 50.000000
 Pulse seq.: 43be13ae-de9a-40a1-9a2d-c872d8bjs100 (PRESS Ideal)
 0 User static parameters: 
 28 Metabolites: 2-hydroxyglutarate, alanine, choline-methylene, choline-trimethyl, choline-truncated, creatine, ethanolamine, gaba, glucose-alpha, glucose-beta, glutamate, glutamine, glutathione-glutamate, glutathione-glycine-cysteine, glycine, GPC-gp, GPC-pcholine1, GPC-pcholine2, lactate, myo-inositol, n-acetylaspartate, NAAG-truncated, phosphocreatine, phosphorylcholine-notrimethyl, phosphorylcholine-trimethyl, phosphorylethanolamine, pyruvate, taurine
 28 Simulations: (not shown)
 
 Metabolite Formatting Information
 ---------------------------------------------------------------------------
 Name=2-hydroxyglutarate Abbr=2HG Scale=1.0 Shift=0.0 PPM Start=-7.81 PPM End=7.81
 Name=alanine Abbr=Ala Scale=1.0 Shift=0.0 PPM Start=-7.81 PPM End=7.81
 Name=choline-methylene Abbr=choline-methylene Scale=1.0 Shift=0.0 PPM Start=-7.81 PPM End=7.81
 Name=choline-trimethyl Abbr=choline-trimethyl Scale=1.0 Shift=0.0 PPM Start=-7.81 PPM End=7.81
 Name=choline-truncated Abbr=choline-truncated Scale=1.0 Shift=0.0 PPM Start=-7.81 PPM End=7.81
 Name=creatine Abbr=Cr Scale=1.0 Shift=0.0 PPM Start=-7.81 PPM End=7.81
 Name=ethanolamine Abbr=ETA Scale=1.0 Shift=0.0 PPM Start=-7.81 PPM End=7.81
 Name=gaba Abbr=GABA Scale=1.0 Shift=0.0 PPM Start=-7.81 PPM End=7.81
 Name=glutamate Abbr=Glu Scale=1.0 Shift=0.0 PPM Start=-7.81 PPM End=7.81
 Name=glutamine Abbr=Gln Scale=1.0 Shift=0.0 PPM Start=-7.81 PPM End=7.81
 Name=glutathione-glutamate Abbr=glutathione-glutamate Scale=1.0 Shift=0.0 PPM Start=-7.81 PPM End=7.81
 Name=glutathione-glycine-cysteine Abbr=GSH Scale=1.0 Shift=0.0 PPM Start=-7.81 PPM End=7.81
 Name=glycine Abbr=Gly Scale=1.0 Shift=0.0 PPM Start=-7.81 PPM End=7.81
 Name=GPC-gp Abbr=GPC-gp Scale=1.0 Shift=0.0 PPM Start=-7.81 PPM End=7.81
 Name=GPC-pcholine1 Abbr=GPC-pcholine1 Scale=1.0 Shift=0.0 PPM Start=-7.81 PPM End=7.81
 Name=GPC-pcholine2 Abbr=GPC-pcholine2 Scale=1.0 Shift=0.0 PPM Start=-7.81 PPM End=7.81
 Name=lactate Abbr=Lac Scale=1.0 Shift=0.0 PPM Start=-7.81 PPM End=7.81
 Name=myo-inositol Abbr=mI Scale=1.0 Shift=0.0 PPM Start=-7.81 PPM End=7.81
 Name=n-acetylaspartate Abbr=NAA Scale=1.0 Shift=0.0 PPM Start=-7.18 PPM End=7.81
 Name=NAAG-truncated Abbr=NAAG Scale=1.0 Shift=0.0 PPM Start=-7.81 PPM End=7.81
 Name=phosphocreatine Abbr=PCr Scale=1.0 Shift=0.0 PPM Start=-7.81 PPM End=7.81
 Name=phosphorylcholine-notrimethyl Abbr=phosphorylcholine-notrimethyl Scale=1.0 Shift=0.0 PPM Start=-7.81 PPM End=7.81
 Name=phosphorylcholine-trimethyl Abbr=phosphorylcholine-trimethyl Scale=1.0 Shift=0.0 PPM Start=-7.81 PPM End=7.81
 Name=phosphorylethanolamine Abbr=PE Scale=1.0 Shift=0.0 PPM Start=-7.81 PPM End=7.81
 Name=pyruvate Abbr=Pyr Scale=1.0 Shift=0.0 PPM Start=-7.51 PPM End=7.81
 Name=taurine Abbr=Tau Scale=1.0 Shift=0.0 PPM Start=7.81 PPM End=7.81
 Name=glucose-beta+glucose-alpha Abbr=Glc Scale=1.0 Shift=0.0 PPM Start=-7.81 PPM End=7.81
   Mixture of [metab*scale] = glucose-beta*1.000000 + glucose-alpha*1.000000
 
 ===========================================================================
 This LCModel format RAW file was created using the 
 Vespa-Simulation spectral simulation program using 
 the following settings and parameters 
 
 Sweep Width = 3500.0 Hz 
 Vector Size = 2048 points 
 Apodization = 15.0 Hz Lorentzian broadening
 B0 Field    = 127.74 MHz 
 Ref Singlet = False
  
 $NMID ID='ETA'
 FMTDAT='(2E16.6)'
 VOLUME=1.0
 TRAMP=1.0
 $END
    3.506597E+00   -6.249530E-05
    3.316974E+00    9.508737E-01
    2.862637E+00    1.788284E+00
    2.196432E+00    2.438525E+00
    1.390940E+00    2.850207E+00
    5.296640E-01    2.999003E+00
   -3.027042E-01    2.889133E+00
   -1.029758E+00    2.551486E+00
   -1.591443E+00    2.038722E+00
   -1.949879E+00    1.418049E+00
   -2.092216E+00    7.626977E-01
   -2.030450E+00    1.430787E-01
   -1.798247E+00   -3.811637E-01
   -1.445371E+00   -7.674325E-01
   -1.030484E+00   -9.939495E-01
   -6.132852E-01   -1.060808E+00
   -2.469675E-01   -9.882453E-01
    2.800505E-02   -8.124669E-01
    1.882004E-01   -5.797340E-01
    2.290635E-01   -3.394807E-01
    1.642316E-01   -1.373978E-01
    2.248645E-02   -9.383094E-03
   -1.571181E-01    2.293707E-02
   -3.312853E-01   -4.541646E-02
   -4.588239E-01   -2.027256E-01
   -5.064795E-01   -4.227483E-01
   -4.535211E-01   -6.687805E-01
   -2.945269E-01   -8.990000E-01
   -4.003624E-02   -1.072379E+00
    2.848529E-01   -1.154349E+00
    6.438973E-01   -1.121554E+00
    9.944339E-01   -9.650288E-01
    1.292868E+00   -6.915494E-01
    1.500324E+00   -3.228546E-01
    1.587519E+00    1.069466E-01
    1.538438E+00    5.554362E-01
    1.352319E+00    9.771054E-01
    1.043767E+00    1.328634E+00
    6.409428E-01    1.574067E+00
    1.822029E-01    1.688836E+00
   -2.883371E-01    1.662422E+00
   -7.260132E-01    1.499309E+00
   -1.090491E+00    1.218142E+00
   -1.350252E+00    8.492239E-01
   -1.485728E+00    4.307743E-01
   -1.490995E+00    4.458917E-03
   -1.373873E+00   -3.894540E-01
   -1.154349E+00   -7.164305E-01
   -8.617427E-01   -9.511545E-01
   -5.308402E-01   -1.079892E+00
   -1.977100E-01   -1.101220E+00
    1.045389E-01   -1.025405E+00
    3.493021E-01   -8.723553E-01
    5.190445E-01   -6.686031E-01
    6.067098E-01   -4.436456E-01
    6.156745E-01   -2.261745E-01
    5.584712E-01   -4.066771E-02
    4.544821E-01    9.530975E-02
    3.268925E-01    1.727907E-01
    1.993844E-01    1.917979E-01
    9.296587E-02    1.606707E-01
    2.332015E-02    9.431039E-02
   -9.540588E-04    1.166210E-02
    2.088083E-02   -6.717136E-02
    8.203523E-02   -1.238396E-01
    1.695000E-01   -1.442757E-01
    2.661323E-01   -1.205588E-01
    3.532319E-01   -5.185482E-02
    4.132042E-01    5.557680E-02
    4.320322E-01    1.893624E-01
    4.011994E-01    3.327514E-01
    3.188172E-01    4.669404E-01
    1.899199E-01    5.735240E-01
    2.582434E-02    6.369435E-01
   -1.573494E-01    6.464885E-01
   -3.406104E-01    5.976404E-01
   -5.044744E-01    4.926577E-01
   -6.313534E-01    3.402462E-01
   -7.075633E-01    1.545446E-01
   -7.249393E-01   -4.659630E-02
   -6.816900E-01   -2.437792E-01
   -5.824778E-01   -4.182052E-01
   -4.377527E-01   -5.538414E-01
   -2.624314E-01   -6.391156E-01
   -7.403607E-02   -6.680780E-01
    1.092651E-01   -6.407983E-01
    2.707268E-01   -5.631327E-01
    3.968395E-01   -4.457650E-01
    4.785659E-01   -3.027926E-01
    5.121237E-01   -1.499635E-01
    4.990696E-01   -2.779964E-03
    4.457297E-01    1.251534E-01
    3.621610E-01    2.235573E-01
    2.606916E-01    2.864118E-01
    1.543372E-01    3.122536E-01
    5.521317E-02    3.039924E-01
   -2.685073E-02    2.681780E-01
   -8.525489E-02    2.138692E-01
   -1.171755E-01    1.512969E-01
   -1.235667E-01    9.046938E-02
   -1.087044E-01    3.989410E-02
   -7.931778E-02    5.610185E-03
   -4.349148E-02   -9.421814E-03
   -9.448183E-03   -5.480839E-03
    1.560056E-02    1.419828E-02
    2.640503E-02    4.406762E-02
    2.030836E-02    7.719160E-02
   -2.496650E-03    1.063002E-01
   -3.910534E-02    1.248439E-01
   -8.440825E-02    1.279000E-01
   -1.318466E-01    1.128300E-01
   -1.743580E-01    7.960835E-02
   -2.053464E-01    3.079501E-02
   -2.195648E-01   -2.881916E-02
   -2.137966E-01   -9.289465E-02
   -1.872569E-01   -1.543131E-01
   -1.416815E-01   -2.061174E-01
   -8.109136E-02   -2.423627E-01
   -1.128103E-02   -2.588276E-01
    6.089567E-02   -2.534951E-01
    1.283383E-01   -2.267574E-01
    1.845672E-01   -1.812990E-01
    2.243849E-01   -1.217554E-01
    2.444655E-01   -5.411572E-02
    2.436492E-01    1.499337E-02
    2.229818E-01    7.907066E-02
    1.855024E-01    1.324445E-01
    1.357842E-01    1.708880E-01
    7.937232E-02    1.919491E-01
    2.209716E-02    1.951449E-01
   -3.058336E-02    1.818723E-01
   -7.416020E-02    1.551164E-01
   -1.054953E-01    1.190000E-01
   -1.230812E-01    7.821001E-02
   -1.270355E-01    3.744201E-02
   -1.189619E-01    8.485184E-04
   -1.016165E-01   -2.838727E-02
   -7.846935E-02   -4.832997E-02
   -5.321703E-02   -5.839651E-02
   -2.931132E-02   -5.928543E-02
   -9.545581E-03   -5.276068E-02
    4.214667E-03   -4.130642E-02
    1.118652E-02   -2.773691E-02
    1.166007E-02   -1.478834E-02
    6.853260E-03   -4.756989E-03
   -1.342497E-03    7.754631E-04
   -1.068628E-02    1.101039E-03
   -1.893243E-02   -3.585350E-03
   -2.415186E-02   -1.227730E-02
   -2.498888E-02   -2.335277E-02
   -2.082442E-02   -3.483998E-02
   -1.183024E-02   -4.471463E-02
    1.083904E-03   -5.118745E-02
    1.642980E-02   -5.294617E-02
    3.234855E-02   -4.931936E-02
    4.687741E-02   -4.035203E-02
    5.820856E-02   -2.678188E-02
    6.491815E-02   -9.927685E-03
    6.613678E-02    8.488627E-03
    6.164134E-02    2.657748E-02
    5.186236E-02    4.249900E-02
    3.781152E-02    5.469201E-02
    2.094033E-02    6.204404E-02
    2.953159E-03    6.400081E-02
   -1.439972E-02    6.060307E-02
   -2.952042E-02    5.245148E-02
   -4.114321E-02    4.060177E-02
   -4.843974E-02    2.642356E-02
   -5.108993E-02    1.142321E-02
   -4.927606E-02   -2.932463E-03
