 Vespa-Simulation Mixed Metabolite Output
 This file was generated by Vespa-Simulation. You can learn about and download Vespa here:
https://github.com/vespa-mrs/vespa/tree/main/vespa

 
 Output Path/Filename = /home/stud/casperc/bhome/Project1(DeepFit)/DeepFit-data-generation/Initial_spectra_linewidth_10_TE30_1024p
 Output Loop Values = (1,1,1)  ( Loop 1 = 11, Loop 2 = 11, Loop3 Inactive )
 Output Comment
 ---------------------------------------------------------------------------
 
 
 Experiment Information
 ---------------------------------------------------------------------------
 --- Experiment 982623a4-1070-4538-bb82-a4cf0a440db0 ---
 Name: SyntheticDataSetDeepFitTE22
 Public: False
 Created: 2024-10-04T10:31:50
 Comment (abbr.): 
 PI: Casper Cappelen
 b0: 127.740000
 Peak Search PPM low/high: -10.000000 / 10.000000
 Blend tol. PPM/phase: 0.000150 / 50.000000
 Pulse seq.: 43be13ae-de9a-40a1-9a2d-c872d8bjs100 (PRESS Ideal)
 0 User static parameters: 
 28 Metabolites: 2-hydroxyglutarate, alanine, choline-methylene, choline-trimethyl, choline-truncated, creatine, ethanolamine, gaba, glucose-alpha, glucose-beta, glutamate, glutamine, glutathione-glutamate, glutathione-glycine-cysteine, glycine, GPC-gp, GPC-pcholine1, GPC-pcholine2, lactate, myo-inositol, n-acetylaspartate, NAAG-truncated, phosphocreatine, phosphorylcholine-notrimethyl, phosphorylcholine-trimethyl, phosphorylethanolamine, pyruvate, taurine
 28 Simulations: (not shown)
 
 Metabolite Formatting Information
 ---------------------------------------------------------------------------
 Name=2-hydroxyglutarate Abbr=2HG Scale=1.0 Shift=0.0 PPM Start=-7.81 PPM End=7.81
 Name=alanine Abbr=Ala Scale=1.0 Shift=0.0 PPM Start=-7.81 PPM End=7.81
 Name=choline-methylene Abbr=choline-methylene Scale=1.0 Shift=0.0 PPM Start=-7.81 PPM End=7.81
 Name=choline-trimethyl Abbr=choline-trimethyl Scale=1.0 Shift=0.0 PPM Start=-7.81 PPM End=7.81
 Name=choline-truncated Abbr=choline-truncated Scale=1.0 Shift=0.0 PPM Start=-7.81 PPM End=7.81
 Name=creatine Abbr=Cr Scale=1.0 Shift=0.0 PPM Start=-7.81 PPM End=7.81
 Name=ethanolamine Abbr=ETA Scale=1.0 Shift=0.0 PPM Start=-7.81 PPM End=7.81
 Name=gaba Abbr=GABA Scale=1.0 Shift=0.0 PPM Start=-7.81 PPM End=7.81
 Name=glutamate Abbr=Glu Scale=1.0 Shift=0.0 PPM Start=-7.81 PPM End=7.81
 Name=glutamine Abbr=Gln Scale=1.0 Shift=0.0 PPM Start=-7.81 PPM End=7.81
 Name=glutathione-glutamate Abbr=glutathione-glutamate Scale=1.0 Shift=0.0 PPM Start=-7.81 PPM End=7.81
 Name=glutathione-glycine-cysteine Abbr=GSH Scale=1.0 Shift=0.0 PPM Start=-7.81 PPM End=7.81
 Name=glycine Abbr=Gly Scale=1.0 Shift=0.0 PPM Start=-7.81 PPM End=7.81
 Name=GPC-gp Abbr=GPC-gp Scale=1.0 Shift=0.0 PPM Start=-7.81 PPM End=7.81
 Name=GPC-pcholine1 Abbr=GPC-pcholine1 Scale=1.0 Shift=0.0 PPM Start=-7.81 PPM End=7.81
 Name=GPC-pcholine2 Abbr=GPC-pcholine2 Scale=1.0 Shift=0.0 PPM Start=-7.81 PPM End=7.81
 Name=lactate Abbr=Lac Scale=1.0 Shift=0.0 PPM Start=-7.81 PPM End=7.81
 Name=myo-inositol Abbr=mI Scale=1.0 Shift=0.0 PPM Start=-7.81 PPM End=7.81
 Name=n-acetylaspartate Abbr=NAA Scale=1.0 Shift=0.0 PPM Start=-7.18 PPM End=7.81
 Name=NAAG-truncated Abbr=NAAG Scale=1.0 Shift=0.0 PPM Start=-7.81 PPM End=7.81
 Name=phosphocreatine Abbr=PCr Scale=1.0 Shift=0.0 PPM Start=-7.81 PPM End=7.81
 Name=phosphorylcholine-notrimethyl Abbr=phosphorylcholine-notrimethyl Scale=1.0 Shift=0.0 PPM Start=-7.81 PPM End=7.81
 Name=phosphorylcholine-trimethyl Abbr=phosphorylcholine-trimethyl Scale=1.0 Shift=0.0 PPM Start=-7.81 PPM End=7.81
 Name=phosphorylethanolamine Abbr=PE Scale=1.0 Shift=0.0 PPM Start=-7.81 PPM End=7.81
 Name=pyruvate Abbr=Pyr Scale=1.0 Shift=0.0 PPM Start=-7.51 PPM End=7.81
 Name=taurine Abbr=Tau Scale=1.0 Shift=0.0 PPM Start=7.81 PPM End=7.81
 Name=glucose-beta+glucose-alpha Abbr=Glc Scale=1.0 Shift=0.0 PPM Start=-7.81 PPM End=7.81
   Mixture of [metab*scale] = glucose-beta*1.000000 + glucose-alpha*1.000000
 
 ===========================================================================
 This LCModel format RAW file was created using the 
 Vespa-Simulation spectral simulation program using 
 the following settings and parameters 
 
 Sweep Width = 3500.0 Hz 
 Vector Size = 2048 points 
 Apodization = 15.0 Hz Lorentzian broadening
 B0 Field    = 127.74 MHz 
 Ref Singlet = False
  
 This data has been FFTd to be in the FREQUENCY domain
 
 $NMID ID='ETA'
 FMTDAT='(2E16.6)'
 VOLUME=1.0
 TRAMP=1.0
 $END
    2.531179E+00    1.346996E+01
    2.553238E+00    1.364529E+01
    2.576292E+00    1.382542E+01
    2.600402E+00    1.401056E+01
    2.625638E+00    1.420095E+01
    2.652075E+00    1.439682E+01
    2.679791E+00    1.459841E+01
    2.708873E+00    1.480599E+01
    2.739413E+00    1.501984E+01
    2.771513E+00    1.524026E+01
    2.805287E+00    1.546759E+01
    2.840853E+00    1.570214E+01
    2.878341E+00    1.594430E+01
    2.917897E+00    1.619446E+01
    2.959677E+00    1.645303E+01
    3.003858E+00    1.672047E+01
    3.050628E+00    1.699725E+01
    3.100196E+00    1.728390E+01
    3.152793E+00    1.758098E+01
    3.208677E+00    1.788910E+01
    3.268136E+00    1.820890E+01
    3.331485E+00    1.854109E+01
    3.399076E+00    1.888644E+01
    3.471302E+00    1.924577E+01
    3.548610E+00    1.961999E+01
    3.631497E+00    2.001007E+01
    3.720518E+00    2.041708E+01
    3.816297E+00    2.084219E+01
    3.919549E+00    2.128667E+01
    4.031085E+00    2.175193E+01
    4.151827E+00    2.223949E+01
    4.282817E+00    2.275105E+01
    4.425260E+00    2.328847E+01
    4.580552E+00    2.385382E+01
    4.750306E+00    2.444937E+01
    4.936366E+00    2.507764E+01
    5.140896E+00    2.574146E+01
    5.366452E+00    2.644397E+01
    5.616028E+00    2.718865E+01
    5.893141E+00    2.797939E+01
    6.201987E+00    2.882060E+01
    6.547603E+00    2.971716E+01
    6.936035E+00    3.067458E+01
    7.374586E+00    3.169899E+01
    7.872169E+00    3.279732E+01
    8.439730E+00    3.397724E+01
    9.090806E+00    3.524732E+01
    9.842259E+00    3.661691E+01
    1.071527E+01    3.809618E+01
    1.173668E+01    3.969577E+01
    1.294076E+01    4.142633E+01
    1.437158E+01    4.329742E+01
    1.608620E+01    4.531558E+01
    1.815881E+01    4.748075E+01
    2.068575E+01    4.977992E+01
    2.379105E+01    5.217578E+01
    2.763007E+01    5.458739E+01
    3.238561E+01    5.685832E+01
    3.824178E+01    5.871001E+01
    4.530809E+01    5.969149E+01
    5.346296E+01    5.918138E+01
    6.216266E+01    5.656995E+01
    7.049275E+01    5.167739E+01
    7.774826E+01    4.493680E+01
    8.381020E+01    3.671231E+01
    8.832050E+01    2.686681E+01
    9.028783E+01    1.583395E+01
    8.944204E+01    4.994061E+00
    8.664959E+01   -4.866052E+00
    8.233862E+01   -1.400018E+01
    7.608472E+01   -2.218335E+01
    6.804177E+01   -2.834866E+01
    5.933412E+01   -3.185281E+01
    5.110918E+01   -3.298243E+01
    4.396211E+01   -3.245218E+01
    3.801716E+01   -3.092824E+01
    3.316858E+01   -2.887687E+01
    2.924281E+01   -2.658372E+01
    2.607243E+01   -2.421363E+01
    2.351677E+01   -2.186301E+01
    2.145699E+01   -1.958996E+01
    1.979016E+01   -1.742324E+01
    1.843265E+01   -1.536762E+01
    1.732236E+01   -1.341446E+01
    1.641490E+01   -1.155088E+01
    1.567807E+01   -9.763697E+00
    1.508793E+01   -8.040470E+00
    1.462648E+01   -6.369485E+00
    1.428027E+01   -4.739621E+00
    1.403956E+01   -3.140208E+00
    1.389772E+01   -1.560908E+00
    1.385092E+01    8.399494E-03
    1.389790E+01    1.577721E+00
    1.403991E+01    3.157065E+00
    1.428079E+01    4.756549E+00
    1.462715E+01    6.386514E+00
    1.508874E+01    8.057632E+00
    1.567900E+01    9.781027E+00
    1.641593E+01    1.156841E+01
    1.732342E+01    1.343223E+01
    1.843363E+01    1.538567E+01
    1.979089E+01    1.744171E+01
    2.145725E+01    1.960911E+01
    2.351644E+01    2.188326E+01
    2.607148E+01    2.423544E+01
    2.924108E+01    2.660764E+01
    3.316581E+01    2.890396E+01
    3.801350E+01    3.096043E+01
    4.395895E+01    3.249235E+01
    5.111068E+01    3.303383E+01
    5.934880E+01    3.191620E+01
    6.808027E+01    2.841612E+01
    7.614726E+01    2.223624E+01
    8.240502E+01    1.402906E+01
    8.670747E+01    4.889494E+00
    8.951151E+01   -4.966122E+00
    9.037827E+01   -1.582664E+01
    8.840460E+01   -2.689353E+01
    8.387190E+01   -3.675050E+01
    7.780299E+01   -4.497495E+01
    7.054357E+01   -5.172861E+01
    6.219397E+01   -5.663378E+01
    5.347083E+01   -5.924209E+01
    4.530156E+01   -5.973942E+01
    3.823014E+01   -5.874486E+01
    3.237387E+01   -5.688338E+01
    2.762010E+01   -5.460596E+01
    2.378318E+01   -5.219025E+01
    2.067976E+01   -4.979178E+01
    1.815430E+01   -4.749092E+01
    1.608283E+01   -4.532460E+01
    1.436906E+01   -4.330563E+01
    1.293888E+01   -4.143394E+01
    1.173526E+01   -3.970291E+01
    1.071419E+01   -3.810292E+01
    9.841424E+00   -3.662331E+01
    9.090157E+00   -3.525342E+01
    8.439217E+00   -3.398308E+01
    7.871749E+00   -3.280291E+01
    7.374232E+00   -3.170435E+01
    6.935736E+00   -3.067972E+01
    6.547348E+00   -2.972212E+01
    6.201749E+00   -2.882538E+01
    5.892902E+00   -2.798399E+01
    5.615800E+00   -2.719306E+01
    5.366242E+00   -2.644823E+01
    5.140679E+00   -2.574559E+01
    4.936131E+00   -2.508162E+01
    4.750073E+00   -2.445319E+01
    4.580332E+00   -2.385751E+01
    4.425033E+00   -2.329205E+01
    4.282577E+00   -2.275451E+01
    4.151585E+00   -2.224283E+01
    4.030850E+00   -2.175516E+01
    3.919313E+00   -2.128981E+01
    3.816054E+00   -2.084524E+01
    3.720269E+00   -2.042004E+01
    3.631247E+00   -2.001294E+01
    3.548356E+00   -1.962278E+01
    3.471038E+00   -1.924848E+01
    3.398799E+00   -1.888907E+01
    3.331199E+00   -1.854365E+01
    3.267847E+00   -1.821138E+01
    3.208387E+00   -1.789150E+01
    3.152501E+00   -1.758332E+01
    3.099906E+00   -1.728617E+01
    3.050344E+00   -1.699945E+01
    3.003584E+00   -1.672261E+01
