 Vespa-Simulation Mixed Metabolite Output
 This file was generated by Vespa-Simulation. You can learn about and download Vespa here:
https://github.com/vespa-mrs/vespa/tree/main/vespa

 
 Output Path/Filename = /home/stud/casperc/bhome/Project1(DeepFit)/DeepFit-data-generation/Initial_spectra_linewidth_10_TE30_1024p
 Output Loop Values = (1,1,1)  ( Loop 1 = 15, Loop 2 = 15, Loop3 Inactive )
 Output Comment
 ---------------------------------------------------------------------------
 
 
 Experiment Information
 ---------------------------------------------------------------------------
 --- Experiment 32780d98-dc11-42ab-ab27-92876fb0934a ---
 Name: PRESS_3T_30TE
 Public: False
 Created: 2023-12-19T15:15:29
 Comment (abbr.): LC-Model basis set clone +2-HG
 PI: Casper Cappelen
 b0: 127.740000
 Peak Search PPM low/high: 0.000000 / 10.000000
 Blend tol. PPM/phase: 0.001500 / 50.000000
 Pulse seq.: 43be13ae-de9a-40a1-9a2d-c872d8bjs100 (PRESS Ideal)
 0 User static parameters: 
 19 Metabolites: 2-hydroxyglutarate, GPC-gp, NAAG-truncated, alanine, aspartate, creatine, gaba, glucose-alpha, glucose-beta, glutamate, glutamine, glutathione-glutamate, lactate, myo-inositol, n-acetylaspartate, phosphocreatine, phosphorylcholine-notrimethyl, scyllo-inositol, taurine
 19 Simulations: (not shown)
 
 Metabolite Formatting Information
 ---------------------------------------------------------------------------
 Name=GPC-gp Abbr=GPC Scale=1.0 Shift=0.0 PPM Start=0.0 PPM End=4.5
 Name=NAAG-truncated Abbr=NAAG Scale=1.0 Shift=0.0 PPM Start=0.0 PPM End=4.5
 Name=alanine Abbr=Ala Scale=1.0 Shift=0.0 PPM Start=0.0 PPM End=4.5
 Name=aspartate Abbr=Asp Scale=1.0 Shift=0.0 PPM Start=0.0 PPM End=4.5
 Name=creatine Abbr=Cr Scale=1.0 Shift=0.1 PPM Start=0.0 PPM End=4.5
 Name=gaba Abbr=GABA Scale=1.0 Shift=0.0 PPM Start=0.0 PPM End=4.5
 Name=glutamate Abbr=Glu Scale=1.0 Shift=0.0 PPM Start=0.0 PPM End=4.5
 Name=glutamine Abbr=Gln Scale=1.0 Shift=0.0 PPM Start=0.0 PPM End=4.5
 Name=glutathione-glutamate Abbr=GSH Scale=1.0 Shift=0.0 PPM Start=0.0 PPM End=4.5
 Name=lactate Abbr=Lac Scale=1.0 Shift=0.0 PPM Start=0.0 PPM End=4.5
 Name=myo-inositol Abbr=mI Scale=1.0 Shift=0.0 PPM Start=0.0 PPM End=4.5
 Name=n-acetylaspartate Abbr=NAA Scale=1.0 Shift=0.0 PPM Start=0.0 PPM End=4.5
 Name=phosphocreatine Abbr=PCr Scale=1.0 Shift=0.0 PPM Start=0.0 PPM End=4.5
 Name=phosphorylcholine-notrimethyl Abbr=PCho Scale=1.0 Shift=0.0 PPM Start=0.0 PPM End=4.5
 Name=taurine Abbr=Tau Scale=1.0 Shift=0.0 PPM Start=0.0 PPM End=4.5
 Name=glucose-alpha+glucose-beta Abbr=Glc Scale=1.0 Shift=0.0 PPM Start=0.0 PPM End=4.5
   Mixture of [metab*scale] = glucose-alpha*1.000000 + glucose-beta*1.000000
 
 ===========================================================================
 This LCModel format RAW file was created using the 
 Vespa-Simulation spectral simulation program using 
 the following settings and parameters 
 
 Sweep Width = 574.83 Hz 
 Vector Size = 1024 points 
 Apodization = 10.0 Hz Gaussian broadening
 B0 Field    = 127.74 MHz 
 Ref Singlet = False
  
 This data has been FFTd to be in the FREQUENCY domain
 
 $NMID ID='GABA'
 FMTDAT='(2E16.6)'
 VOLUME=1.0
 TRAMP=1.0
 $END
    1.903958E+00    6.375079E-02
    1.903651E+00    7.016844E-02
    1.903346E+00    7.658570E-02
    1.903041E+00    8.300267E-02
    1.902738E+00    8.941945E-02
    1.902435E+00    9.583617E-02
    1.902133E+00    1.022530E-01
    1.901833E+00    1.086700E-01
    1.901532E+00    1.150874E-01
    1.901233E+00    1.215055E-01
    1.900934E+00    1.279243E-01
    1.900637E+00    1.343440E-01
    1.900339E+00    1.407650E-01
    1.900043E+00    1.471873E-01
    1.899747E+00    1.536112E-01
    1.899452E+00    1.600367E-01
    1.899157E+00    1.664642E-01
    1.898864E+00    1.728936E-01
    1.898571E+00    1.793253E-01
    1.898279E+00    1.857593E-01
    1.897988E+00    1.921957E-01
    1.897697E+00    1.986348E-01
    1.897408E+00    2.050766E-01
    1.897119E+00    2.115214E-01
    1.896830E+00    2.179693E-01
    1.896543E+00    2.244204E-01
    1.896256E+00    2.308750E-01
    1.895969E+00    2.373332E-01
    1.895684E+00    2.437952E-01
    1.895398E+00    2.502613E-01
    1.895114E+00    2.567317E-01
    1.894829E+00    2.632066E-01
    1.894546E+00    2.696863E-01
    1.894263E+00    2.761708E-01
    1.893981E+00    2.826604E-01
    1.893700E+00    2.891553E-01
    1.893420E+00    2.956556E-01
    1.893140E+00    3.021613E-01
    1.892862E+00    3.086726E-01
    1.892585E+00    3.151895E-01
    1.892308E+00    3.217122E-01
    1.892032E+00    3.282408E-01
    1.891757E+00    3.347753E-01
    1.891483E+00    3.413160E-01
    1.891209E+00    3.478631E-01
    1.890936E+00    3.544169E-01
    1.890663E+00    3.609775E-01
    1.890391E+00    3.675453E-01
    1.890119E+00    3.741206E-01
    1.889847E+00    3.807035E-01
    1.889576E+00    3.872944E-01
    1.889306E+00    3.938935E-01
    1.889036E+00    4.005009E-01
    1.888767E+00    4.071168E-01
    1.888499E+00    4.137413E-01
    1.888232E+00    4.203745E-01
    1.887966E+00    4.270166E-01
    1.887700E+00    4.336677E-01
    1.887436E+00    4.403279E-01
    1.887172E+00    4.469974E-01
    1.886908E+00    4.536765E-01
    1.886645E+00    4.603653E-01
    1.886383E+00    4.670642E-01
    1.886122E+00    4.737734E-01
    1.885861E+00    4.804930E-01
    1.885600E+00    4.872234E-01
    1.885340E+00    4.939647E-01
    1.885081E+00    5.007171E-01
    1.884823E+00    5.074809E-01
    1.884566E+00    5.142563E-01
    1.884309E+00    5.210434E-01
    1.884053E+00    5.278424E-01
    1.883797E+00    5.346535E-01
    1.883543E+00    5.414770E-01
    1.883289E+00    5.483130E-01
    1.883036E+00    5.551618E-01
    1.882784E+00    5.620236E-01
    1.882532E+00    5.688986E-01
    1.882282E+00    5.757869E-01
    1.882032E+00    5.826889E-01
    1.881782E+00    5.896047E-01
    1.881534E+00    5.965345E-01
    1.881286E+00    6.034786E-01
    1.881039E+00    6.104371E-01
    1.880792E+00    6.174105E-01
    1.880546E+00    6.243989E-01
    1.880301E+00    6.314028E-01
    1.880056E+00    6.384224E-01
    1.879812E+00    6.454579E-01
    1.879569E+00    6.525099E-01
    1.879326E+00    6.595783E-01
    1.879085E+00    6.666636E-01
    1.878844E+00    6.737659E-01
    1.878605E+00    6.808853E-01
    1.878367E+00    6.880220E-01
    1.878129E+00    6.951762E-01
    1.877894E+00    7.023480E-01
    1.877659E+00    7.095377E-01
    1.877424E+00    7.167455E-01
    1.877191E+00    7.239717E-01
    1.876959E+00    7.312165E-01
    1.876727E+00    7.384804E-01
    1.876496E+00    7.457638E-01
    1.876266E+00    7.530669E-01
    1.876036E+00    7.603902E-01
    1.875807E+00    7.677339E-01
    1.875580E+00    7.750985E-01
    1.875353E+00    7.824841E-01
    1.875127E+00    7.898911E-01
    1.874903E+00    7.973196E-01
    1.874679E+00    8.047700E-01
    1.874457E+00    8.122425E-01
    1.874236E+00    8.197374E-01
    1.874016E+00    8.272549E-01
    1.873797E+00    8.347954E-01
    1.873579E+00    8.423593E-01
    1.873363E+00    8.499468E-01
    1.873147E+00    8.575583E-01
    1.872933E+00    8.651941E-01
    1.872720E+00    8.728546E-01
    1.872508E+00    8.805401E-01
    1.872297E+00    8.882509E-01
    1.872087E+00    8.959874E-01
    1.871879E+00    9.037498E-01
    1.871672E+00    9.115386E-01
    1.871466E+00    9.193541E-01
    1.871261E+00    9.271968E-01
    1.871057E+00    9.350670E-01
    1.870854E+00    9.429652E-01
    1.870653E+00    9.508919E-01
    1.870452E+00    9.588475E-01
    1.870253E+00    9.668323E-01
    1.870056E+00    9.748469E-01
    1.869860E+00    9.828916E-01
    1.869666E+00    9.909667E-01
    1.869473E+00    9.990727E-01
    1.869282E+00    1.007210E+00
    1.869092E+00    1.015379E+00
    1.868905E+00    1.023579E+00
    1.868719E+00    1.031812E+00
    1.868535E+00    1.040078E+00
    1.868353E+00    1.048377E+00
    1.868172E+00    1.056710E+00
    1.867993E+00    1.065076E+00
    1.867816E+00    1.073478E+00
    1.867640E+00    1.081914E+00
    1.867466E+00    1.090386E+00
    1.867294E+00    1.098894E+00
    1.867124E+00    1.107438E+00
    1.866955E+00    1.116020E+00
    1.866788E+00    1.124640E+00
    1.866623E+00    1.133297E+00
    1.866459E+00    1.141994E+00
    1.866298E+00    1.150730E+00
    1.866139E+00    1.159507E+00
    1.865982E+00    1.168324E+00
    1.865827E+00    1.177182E+00
    1.865675E+00    1.186082E+00
    1.865526E+00    1.195024E+00
    1.865379E+00    1.204008E+00
    1.865235E+00    1.213036E+00
    1.865094E+00    1.222108E+00
    1.864955E+00    1.231223E+00
    1.864819E+00    1.240384E+00
    1.864686E+00    1.249590E+00
    1.864555E+00    1.258842E+00
    1.864427E+00    1.268141E+00
    1.864301E+00    1.277487E+00
    1.864178E+00    1.286882E+00
    1.864058E+00    1.296326E+00
    1.863940E+00    1.305820E+00
    1.863826E+00    1.315364E+00
    1.863715E+00    1.324960E+00
    1.863606E+00    1.334608E+00
    1.863502E+00    1.344308E+00
    1.863400E+00    1.354062E+00
    1.863303E+00    1.363871E+00
    1.863208E+00    1.373734E+00
    1.863118E+00    1.383653E+00
    1.863031E+00    1.393628E+00
    1.862948E+00    1.403661E+00
    1.862868E+00    1.413752E+00
    1.862793E+00    1.423902E+00
    1.862721E+00    1.434112E+00
    1.862653E+00    1.444384E+00
    1.862589E+00    1.454717E+00
    1.862530E+00    1.465113E+00
    1.862475E+00    1.475573E+00
    1.862424E+00    1.486098E+00
    1.862379E+00    1.496689E+00
    1.862338E+00    1.507347E+00
    1.862302E+00    1.518072E+00
    1.862272E+00    1.528866E+00
    1.862247E+00    1.539729E+00
    1.862227E+00    1.550664E+00
    1.862213E+00    1.561670E+00
    1.862204E+00    1.572749E+00
    1.862201E+00    1.583901E+00
    1.862203E+00    1.595129E+00
    1.862211E+00    1.606434E+00
    1.862225E+00    1.617816E+00
    1.862244E+00    1.629277E+00
    1.862270E+00    1.640819E+00
    1.862302E+00    1.652442E+00
    1.862341E+00    1.664149E+00
    1.862386E+00    1.675939E+00
