 Vespa-Simulation Mixed Metabolite Output
 This file was generated by Vespa-Simulation. You can learn about and download Vespa here:
https://github.com/vespa-mrs/vespa/tree/main/vespa

 
 Output Path/Filename = /home/stud/casperc/bhome/Project1(DeepFit)/DeepFit-data-generation/Initial_spectra_linewidth_10_TE30_1024p
 Output Loop Values = (1,1,1)  ( Loop 1 = 15, Loop 2 = 15, Loop3 Inactive )
 Output Comment
 ---------------------------------------------------------------------------
 
 
 Experiment Information
 ---------------------------------------------------------------------------
 --- Experiment 32780d98-dc11-42ab-ab27-92876fb0934a ---
 Name: PRESS_3T_30TE
 Public: False
 Created: 2023-12-19T15:15:29
 Comment (abbr.): LC-Model basis set clone +2-HG
 PI: Casper Cappelen
 b0: 127.740000
 Peak Search PPM low/high: 0.000000 / 10.000000
 Blend tol. PPM/phase: 0.001500 / 50.000000
 Pulse seq.: 43be13ae-de9a-40a1-9a2d-c872d8bjs100 (PRESS Ideal)
 0 User static parameters: 
 19 Metabolites: 2-hydroxyglutarate, GPC-gp, NAAG-truncated, alanine, aspartate, creatine, gaba, glucose-alpha, glucose-beta, glutamate, glutamine, glutathione-glutamate, lactate, myo-inositol, n-acetylaspartate, phosphocreatine, phosphorylcholine-notrimethyl, scyllo-inositol, taurine
 19 Simulations: (not shown)
 
 Metabolite Formatting Information
 ---------------------------------------------------------------------------
 Name=GPC-gp Abbr=GPC Scale=1.0 Shift=0.0 PPM Start=0.0 PPM End=4.5
 Name=NAAG-truncated Abbr=NAAG Scale=1.0 Shift=0.0 PPM Start=0.0 PPM End=4.5
 Name=alanine Abbr=Ala Scale=1.0 Shift=0.0 PPM Start=0.0 PPM End=4.5
 Name=aspartate Abbr=Asp Scale=1.0 Shift=0.0 PPM Start=0.0 PPM End=4.5
 Name=creatine Abbr=Cr Scale=1.0 Shift=0.1 PPM Start=0.0 PPM End=4.5
 Name=gaba Abbr=GABA Scale=1.0 Shift=0.0 PPM Start=0.0 PPM End=4.5
 Name=glutamate Abbr=Glu Scale=1.0 Shift=0.0 PPM Start=0.0 PPM End=4.5
 Name=glutamine Abbr=Gln Scale=1.0 Shift=0.0 PPM Start=0.0 PPM End=4.5
 Name=glutathione-glutamate Abbr=GSH Scale=1.0 Shift=0.0 PPM Start=0.0 PPM End=4.5
 Name=lactate Abbr=Lac Scale=1.0 Shift=0.0 PPM Start=0.0 PPM End=4.5
 Name=myo-inositol Abbr=mI Scale=1.0 Shift=0.0 PPM Start=0.0 PPM End=4.5
 Name=n-acetylaspartate Abbr=NAA Scale=1.0 Shift=0.0 PPM Start=0.0 PPM End=4.5
 Name=phosphocreatine Abbr=PCr Scale=1.0 Shift=0.0 PPM Start=0.0 PPM End=4.5
 Name=phosphorylcholine-notrimethyl Abbr=PCho Scale=1.0 Shift=0.0 PPM Start=0.0 PPM End=4.5
 Name=taurine Abbr=Tau Scale=1.0 Shift=0.0 PPM Start=0.0 PPM End=4.5
 Name=glucose-alpha+glucose-beta Abbr=Glc Scale=1.0 Shift=0.0 PPM Start=0.0 PPM End=4.5
   Mixture of [metab*scale] = glucose-alpha*1.000000 + glucose-beta*1.000000
 
 ===========================================================================
 This LCModel format RAW file was created using the 
 Vespa-Simulation spectral simulation program using 
 the following settings and parameters 
 
 Sweep Width = 574.83 Hz 
 Vector Size = 1024 points 
 Apodization = 10.0 Hz Gaussian broadening
 B0 Field    = 127.74 MHz 
 Ref Singlet = False
  
 $NMID ID='GABA'
 FMTDAT='(2E16.6)'
 VOLUME=1.0
 TRAMP=1.0
 $END
    3.754201E+00    2.043034E-01
   -2.960153E+00   -3.801615E-01
    1.256394E+00    6.124283E-01
    3.788088E-01   -8.940056E-01
   -1.172533E+00    1.160641E+00
    9.713726E-01   -1.318542E+00
   -2.169851E-01    1.296341E+00
   -4.320842E-01   -1.088915E+00
    5.375257E-01    7.638584E-01
   -9.716216E-02   -4.268670E-01
   -5.491955E-01    1.681319E-01
    1.001350E+00   -2.235421E-02
   -1.053370E+00   -3.464301E-02
    7.695424E-01    5.477910E-02
   -3.762581E-01   -7.818897E-02
    8.398425E-02    1.139398E-01
    2.853296E-02   -1.487405E-01
   -1.145089E-02    1.678497E-01
   -3.807462E-02   -1.680644E-01
    5.590745E-02    1.557099E-01
   -3.677612E-02   -1.371168E-01
    9.490543E-03    1.132501E-01
    1.547811E-03   -8.337029E-02
    4.441545E-03    5.210765E-02
   -1.265434E-02   -3.026733E-02
    1.235043E-02    2.666984E-02
   -6.135932E-03   -3.894788E-02
    1.042866E-03    5.338489E-02
    5.501825E-03   -5.525561E-02
   -2.605858E-02    4.108032E-02
    6.735830E-02   -2.203271E-02
   -1.154046E-01    1.452945E-02
    1.395347E-01   -2.451601E-02
   -1.152945E-01    3.862250E-02
    4.769772E-02   -3.165344E-02
    2.569809E-02   -1.334941E-02
   -5.774727E-02    8.809790E-02
    2.629039E-02   -1.598514E-01
    4.514307E-02    1.909303E-01
   -9.852018E-02   -1.632384E-01
    7.975912E-02    9.037682E-02
    2.146305E-02   -9.125891E-03
   -1.594587E-01   -4.347953E-02
    2.583434E-01    5.184386E-02
   -2.597943E-01   -2.841246E-02
    1.609937E-01    2.322951E-03
   -1.717531E-02    7.291063E-04
   -9.295922E-02    2.627996E-02
    1.158382E-01   -7.002924E-02
   -5.390942E-02    1.075406E-01
   -3.997720E-02   -1.207267E-01
    9.884496E-02    1.055551E-01
   -8.354498E-02   -7.165642E-02
    3.858772E-03    3.466348E-02
    9.224338E-02   -7.175027E-03
   -1.512005E-01   -6.430177E-03
    1.458626E-01    9.588687E-03
   -8.768266E-02   -9.266338E-03
    1.457501E-02    1.114200E-02
    3.468309E-02   -1.693715E-02
   -4.222790E-02    2.464904E-02
    1.690449E-02   -3.070891E-02
    1.639312E-02    3.237554E-02
   -3.437376E-02   -2.909383E-02
    2.819480E-02    2.239465E-02
   -5.083154E-03   -1.477046E-02
   -1.959009E-02    8.352542E-03
    3.291331E-02   -4.097094E-03
   -3.100647E-02    1.740889E-03
    1.885365E-02   -3.554081E-04
   -5.239740E-03   -9.232937E-04
   -3.042781E-03    2.411349E-03
    4.223446E-03   -3.854371E-03
   -8.811873E-04    4.771907E-03
   -2.933046E-03   -4.861721E-03
    4.441902E-03    4.192919E-03
   -3.230572E-03   -3.121043E-03
    6.278970E-04    2.057994E-03
    1.667771E-03   -1.267780E-03
   -2.674028E-03    7.964987E-04
    2.409731E-03   -5.354237E-04
   -1.514936E-03    3.442335E-04
    6.680193E-04   -1.467998E-04
   -2.110774E-04   -5.175462E-05
    1.168371E-04    2.076390E-04
   -1.777341E-04   -2.892748E-04
    2.128456E-04    2.988712E-04
   -1.627179E-04   -2.622957E-04
    6.537347E-05    2.078278E-04
    1.714601E-05   -1.523519E-04
   -5.328120E-05    1.011049E-04
    5.114910E-05   -5.519159E-05
   -3.656504E-05    1.777676E-05
    2.827740E-05    6.137681E-06
   -2.860529E-05   -1.416966E-05
    2.976307E-05    9.715300E-06
   -2.489742E-05   -5.238966E-07
    1.391931E-05   -5.878613E-06
   -1.936706E-06    6.087611E-06
   -5.719014E-06   -1.520538E-06
    7.123671E-06   -3.860128E-06
   -4.076741E-06    6.658036E-06
    8.701571E-10   -5.897231E-06
    2.485338E-06    2.881333E-06
   -2.722048E-06    2.462790E-07
    1.587099E-06   -1.971524E-06
   -3.221143E-07    2.025864E-06
   -3.628209E-07   -1.075778E-06
    4.503558E-07    1.563397E-09
   -2.716107E-07    6.549759E-07
    1.161458E-07   -8.158473E-07
   -7.012178E-08    6.745296E-07
    7.630183E-08   -4.467393E-07
   -6.699283E-08    2.434381E-07
    3.942417E-08   -8.150148E-08
   -3.703548E-08   -5.004367E-08
    8.698650E-08    1.465772E-07
   -1.645381E-07   -1.901932E-07
    2.123218E-07    1.741892E-07
   -1.881829E-07   -1.173200E-07
    9.722409E-08    5.469403E-08
    1.465587E-08   -1.611536E-08
   -9.443895E-08    1.035907E-08
    1.147375E-07   -2.544475E-08
   -8.436075E-08    4.121492E-08
    3.491500E-08   -4.333062E-08
    2.471325E-09    2.979657E-08
   -1.370906E-08   -8.457528E-09
    3.792830E-09   -1.029021E-08
    1.245549E-08    1.988796E-08
   -2.201816E-08   -1.984404E-08
    2.030667E-08    1.401784E-08
   -1.076412E-08   -7.249431E-09
    1.164689E-10    2.713102E-09
    6.494482E-09   -1.099304E-09
   -7.723331E-09    1.360130E-09
    5.333957E-09   -2.017474E-09
   -2.090773E-09    2.126310E-09
   -5.424520E-11   -1.533469E-09
    6.050788E-10    6.062763E-10
   -1.257689E-10    1.960148E-10
   -5.427607E-10   -6.149979E-10
    8.606330E-10    6.546281E-10
   -7.409340E-10   -4.781992E-10
    3.869414E-10    2.650837E-10
   -4.729178E-11   -1.206032E-10
   -1.398027E-10    6.259499E-11
    1.703473E-10   -5.724764E-11
   -1.150408E-10    6.326442E-11
    4.813240E-11   -5.767447E-11
   -8.697684E-12    3.883935E-11
   -4.103125E-13   -1.623110E-11
   -5.877111E-12   -8.868951E-13
    1.282126E-11    8.996368E-12
   -1.393795E-11   -9.839235E-12
    1.004965E-11    7.216760E-12
   -4.761973E-12   -4.242016E-12
    8.544063E-13    2.301419E-12
    8.959210E-13   -1.417310E-12
   -1.111192E-12    1.079428E-12
    7.453619E-13   -8.612623E-13
   -4.127892E-13    6.101278E-13
    2.773502E-13   -3.552138E-13
   -2.548835E-13    1.589955E-13
    2.337558E-13   -4.212427E-14
   -1.737694E-13   -1.425169E-14
    9.562444E-14    3.826119E-14
   -3.312450E-14   -4.731117E-14
    1.660363E-15    4.697693E-14
    4.666869E-15   -3.862914E-14
   -4.126809E-16    2.524594E-14
   -3.264493E-15   -1.174955E-14
    2.803232E-15    2.287715E-15
    1.118285E-16    1.838128E-15
   -2.672343E-15   -1.989635E-15
    3.457203E-15    5.443510E-16
   -2.699296E-15    6.721105E-16
    1.373674E-15   -9.905053E-16
   -3.001673E-16    6.258066E-16
   -2.169201E-16   -8.566365E-17
    2.855602E-16   -2.675865E-16
   -1.568074E-16    3.455753E-16
    2.307572E-17   -2.445638E-16
    4.190794E-17    1.010613E-16
   -4.704331E-17   -7.588678E-19
    2.672436E-17   -3.745674E-17
   -6.451185E-18    3.401471E-17
   -4.564528E-18   -1.632364E-17
    7.357403E-18    1.545772E-18
   -5.910301E-18    5.295297E-18
    3.316304E-18   -6.072384E-18
   -1.066409E-18    4.237164E-18
   -3.607098E-19   -2.151654E-18
    9.255726E-19    7.182978E-19
   -8.068916E-19    2.058159E-20
    3.267902E-19   -2.869958E-19
    1.672792E-19    2.910127E-19
   -4.455582E-19   -1.804066E-19
    4.619404E-19    5.530676E-20
   -3.100142E-19    2.584913E-20
    1.233527E-19   -4.722101E-20
    6.087774E-21    2.573089E-20
   -5.436189E-20    8.882733E-21
    4.581102E-20   -3.311194E-20
   -1.802436E-20    3.848878E-20
   -3.048957E-21   -2.939976E-20
    9.654039E-21    1.530791E-20
   -6.172004E-21   -3.849720E-21
