 Vespa-Simulation Mixed Metabolite Output
 This file was generated by Vespa-Simulation. You can learn about and download Vespa here:
https://github.com/vespa-mrs/vespa/tree/main/vespa

 
 Output Path/Filename = /home/stud/casperc/bhome/Project1(DeepFit)/DeepFit-data-generation/Initial_spectra_linewidth_10_TE30_1024p
 Output Loop Values = (1,1,1)  ( Loop 1 = 15, Loop 2 = 15, Loop3 Inactive )
 Output Comment
 ---------------------------------------------------------------------------
 
 
 Experiment Information
 ---------------------------------------------------------------------------
 --- Experiment 32780d98-dc11-42ab-ab27-92876fb0934a ---
 Name: PRESS_3T_30TE
 Public: False
 Created: 2023-12-19T15:15:29
 Comment (abbr.): LC-Model basis set clone +2-HG
 PI: Casper Cappelen
 b0: 127.740000
 Peak Search PPM low/high: 0.000000 / 10.000000
 Blend tol. PPM/phase: 0.001500 / 50.000000
 Pulse seq.: 43be13ae-de9a-40a1-9a2d-c872d8bjs100 (PRESS Ideal)
 0 User static parameters: 
 19 Metabolites: 2-hydroxyglutarate, GPC-gp, NAAG-truncated, alanine, aspartate, creatine, gaba, glucose-alpha, glucose-beta, glutamate, glutamine, glutathione-glutamate, lactate, myo-inositol, n-acetylaspartate, phosphocreatine, phosphorylcholine-notrimethyl, scyllo-inositol, taurine
 19 Simulations: (not shown)
 
 Metabolite Formatting Information
 ---------------------------------------------------------------------------
 Name=GPC-gp Abbr=GPC Scale=1.0 Shift=0.0 PPM Start=0.0 PPM End=4.5
 Name=NAAG-truncated Abbr=NAAG Scale=1.0 Shift=0.0 PPM Start=0.0 PPM End=4.5
 Name=alanine Abbr=Ala Scale=1.0 Shift=0.0 PPM Start=0.0 PPM End=4.5
 Name=aspartate Abbr=Asp Scale=1.0 Shift=0.0 PPM Start=0.0 PPM End=4.5
 Name=creatine Abbr=Cr Scale=1.0 Shift=0.1 PPM Start=0.0 PPM End=4.5
 Name=gaba Abbr=GABA Scale=1.0 Shift=0.0 PPM Start=0.0 PPM End=4.5
 Name=glutamate Abbr=Glu Scale=1.0 Shift=0.0 PPM Start=0.0 PPM End=4.5
 Name=glutamine Abbr=Gln Scale=1.0 Shift=0.0 PPM Start=0.0 PPM End=4.5
 Name=glutathione-glutamate Abbr=GSH Scale=1.0 Shift=0.0 PPM Start=0.0 PPM End=4.5
 Name=lactate Abbr=Lac Scale=1.0 Shift=0.0 PPM Start=0.0 PPM End=4.5
 Name=myo-inositol Abbr=mI Scale=1.0 Shift=0.0 PPM Start=0.0 PPM End=4.5
 Name=n-acetylaspartate Abbr=NAA Scale=1.0 Shift=0.0 PPM Start=0.0 PPM End=4.5
 Name=phosphocreatine Abbr=PCr Scale=1.0 Shift=0.0 PPM Start=0.0 PPM End=4.5
 Name=phosphorylcholine-notrimethyl Abbr=PCho Scale=1.0 Shift=0.0 PPM Start=0.0 PPM End=4.5
 Name=taurine Abbr=Tau Scale=1.0 Shift=0.0 PPM Start=0.0 PPM End=4.5
 Name=glucose-alpha+glucose-beta Abbr=Glc Scale=1.0 Shift=0.0 PPM Start=0.0 PPM End=4.5
   Mixture of [metab*scale] = glucose-alpha*1.000000 + glucose-beta*1.000000
 
 ===========================================================================
 This LCModel format RAW file was created using the 
 Vespa-Simulation spectral simulation program using 
 the following settings and parameters 
 
 Sweep Width = 574.83 Hz 
 Vector Size = 1024 points 
 Apodization = 10.0 Hz Gaussian broadening
 B0 Field    = 127.74 MHz 
 Ref Singlet = False
  
 $NMID ID='Glc'
 FMTDAT='(2E16.6)'
 VOLUME=1.0
 TRAMP=1.0
 $END
    1.141936E+01    1.706095E-01
    2.759586E-01    1.101546E+01
   -9.716520E+00    7.057018E-01
   -1.059729E+00   -7.728674E+00
    5.344435E+00   -1.277518E+00
    1.310252E+00    2.883573E+00
   -6.324171E-01    1.132856E+00
   -7.507997E-01    1.201769E+00
   -2.511592E+00   -2.014871E-01
   -4.492182E-01   -3.285799E+00
    3.587801E+00   -1.116083E+00
    1.708876E+00    3.525036E+00
   -3.217047E+00    2.149335E+00
   -2.385235E+00   -2.769412E+00
    2.258766E+00   -2.397611E+00
    2.200209E+00    1.730320E+00
   -1.205348E+00    1.832499E+00
   -1.349207E+00   -6.933017E-01
    2.032026E-01   -8.093393E-01
    2.672376E-01   -2.491993E-01
    6.403283E-01   -2.326769E-01
    6.576222E-01    9.431900E-01
   -1.134678E+00    9.860145E-01
   -1.206028E+00   -1.202547E+00
    1.149519E+00   -1.313995E+00
    1.313104E+00    9.937912E-01
   -7.664913E-01    1.212785E+00
   -1.029077E+00   -5.064121E-01
    2.529500E-01   -7.848236E-01
    5.082199E-01    3.895820E-02
    1.145463E-01    2.293555E-01
    2.429054E-02    2.002573E-01
   -2.232721E-01    2.316782E-01
   -3.804023E-01   -1.979346E-01
    1.438416E-01   -4.672620E-01
    4.973795E-01    8.155458E-02
   -2.840537E-02    4.819195E-01
   -4.346608E-01    4.657109E-03
   -1.418299E-02   -3.684567E-01
    2.929392E-01   -3.291723E-03
   -2.056286E-02    2.141030E-01
   -1.353074E-01   -4.813222E-02
    7.071187E-02   -5.871600E-02
   -1.351828E-02    8.217457E-02
   -8.031878E-02   -7.850023E-02
    1.323717E-01   -6.710731E-02
    4.759977E-02    1.707915E-01
   -1.901006E-01    2.804288E-02
   -1.395511E-02   -1.886958E-01
    1.679082E-01   -8.749861E-03
    1.313637E-02    1.319320E-01
   -8.692773E-02    2.516568E-02
   -4.087087E-02   -3.974105E-02
   -3.350519E-03   -5.540148E-02
    6.437799E-02   -3.764197E-02
    6.061178E-02    6.503090E-02
   -5.676605E-02    7.204276E-02
   -7.361508E-02   -4.105854E-02
    2.084845E-02   -6.812712E-02
    5.862977E-02   -2.952423E-04
    1.900742E-02    4.774420E-02
   -3.729122E-02    3.279437E-02
   -4.040617E-02   -2.822590E-02
    2.078805E-02   -4.188394E-02
    3.830610E-02    1.476843E-02
   -9.791792E-03    3.135611E-02
   -2.285606E-02   -5.538415E-03
    1.856421E-03   -1.438536E-02
    7.050826E-03   -1.227804E-03
    3.580283E-03    1.424588E-03
    2.384446E-03    5.058526E-03
   -5.601135E-03    4.583205E-03
   -5.533429E-03   -5.277508E-03
    4.284744E-03   -5.621592E-03
    5.175996E-03    2.903122E-03
   -1.429515E-03    4.434376E-03
   -3.547142E-03   -1.185445E-04
   -8.561407E-04   -2.604059E-03
    1.666088E-03   -1.417779E-03
    1.579241E-03    7.875636E-04
   -2.239426E-05    1.421230E-03
   -1.060306E-03    5.814888E-04
   -9.925511E-04   -6.171387E-04
    1.920700E-04   -1.202685E-03
    1.228780E-03   -1.474109E-04
    3.690163E-04    1.108880E-03
   -8.941025E-04    4.702514E-04
   -4.701169E-04   -6.384400E-04
    3.891492E-04   -3.991081E-04
    2.905097E-04    1.798363E-04
   -2.796647E-05    1.734773E-04
   -6.918506E-05    6.372159E-05
   -1.033103E-04    1.023958E-05
   -6.080106E-05   -1.048074E-04
    8.366701E-05   -8.461406E-05
    8.748256E-05    5.344607E-05
   -2.397224E-05    7.662113E-05
   -5.890454E-05   -8.797485E-07
   -1.379834E-05   -3.976961E-05
    2.279502E-05   -2.057957E-05
    2.136902E-05    9.767635E-06
   -1.044337E-06    1.850098E-05
   -1.406401E-05    3.948222E-06
   -6.210570E-06   -9.558578E-06
    5.832074E-06   -6.774727E-06
    6.462813E-06    3.195608E-06
   -1.605629E-06    5.811237E-06
   -5.099422E-06   -8.350042E-07
    5.994635E-07   -4.426887E-06
    3.795188E-06    6.370371E-07
   -7.528850E-07    3.173855E-06
   -2.543426E-06   -8.303007E-07
    8.216886E-07   -1.912147E-06
    1.311709E-06    7.266721E-07
   -5.710920E-07    7.815221E-07
   -3.531153E-07   -3.902285E-07
    2.170165E-07   -4.148422E-08
   -1.565129E-07    7.517451E-08
    2.372540E-08   -2.582942E-07
    2.893405E-07    7.931562E-08
   -9.894126E-08    2.764667E-07
   -2.424519E-07   -9.359579E-08
    7.457891E-08   -2.031114E-07
    1.670579E-07    5.124581E-08
   -3.001548E-08    1.372448E-07
   -1.132449E-07   -1.417054E-08
    4.425294E-09   -9.327324E-08
    7.559084E-08   -1.463068E-10
    1.197801E-09    5.920321E-08
   -4.396417E-08    3.827351E-10
    1.007332E-09   -3.030358E-08
    1.881469E-08    2.184811E-09
   -2.814007E-09    9.916617E-09
   -3.690365E-09   -2.889523E-09
    2.579368E-09    1.189839E-10
   -1.996983E-09    2.089283E-09
   -1.581276E-09   -2.525019E-09
    2.258270E-09   -1.146231E-09
    8.134373E-10    1.643986E-09
   -9.856439E-10    5.740831E-10
   -4.042479E-10   -4.475515E-10
    8.608341E-11   -2.796010E-10
    1.830120E-10   -1.102080E-10
    1.841930E-10    1.057066E-10
   -4.496085E-11    1.844253E-10
   -1.507981E-10   -6.505046E-13
   -2.749246E-11   -1.095180E-10
    7.400940E-11   -4.113818E-11
    4.343885E-11    4.855659E-11
   -3.234860E-11    3.828874E-11
   -2.946663E-11   -2.264504E-11
    1.668998E-11   -1.996523E-11
    1.168185E-11    1.255164E-11
   -9.220601E-12    5.480020E-12
   -1.451957E-12   -6.364076E-12
    3.984077E-12    7.533841E-13
   -1.659385E-12    2.156074E-12
   -8.995558E-13   -1.777410E-12
    1.512057E-12   -1.528385E-13
   -2.002140E-13    1.129573E-12
   -7.715705E-13   -2.924714E-13
    2.440754E-13   -4.914676E-13
    2.939147E-13    1.448577E-13
   -4.964790E-14    1.638180E-13
   -8.240114E-14    1.727805E-14
   -5.235243E-14   -3.362551E-14
    5.741114E-15   -6.235526E-14
    5.686180E-14   -9.067535E-15
    1.566802E-14    4.422210E-14
   -3.021645E-14    1.709636E-14
   -1.542892E-14   -1.809002E-14
    9.123299E-15   -1.222002E-14
    8.620673E-15    3.321530E-15
   -5.860200E-17    5.362803E-15
   -2.796616E-15    1.454808E-15
   -1.909321E-15   -9.931313E-16
   -1.357419E-16   -1.809270E-15
    1.478954E-15   -7.424490E-16
    9.862495E-16    1.104434E-15
   -7.762427E-16    1.004443E-15
   -9.008962E-16   -5.250089E-16
    3.482415E-16   -7.460556E-16
    5.823580E-16    2.299725E-16
   -1.523696E-16    4.323518E-16
   -3.060883E-16   -1.010477E-16
    6.633425E-17   -2.063457E-16
    1.319367E-16    4.228727E-17
   -2.550742E-17    7.951374E-17
   -4.475469E-17   -1.400504E-17
    6.483677E-18   -2.318656E-17
    1.076632E-17    1.964070E-18
    3.942547E-19    4.221627E-18
   -1.145600E-18    1.319258E-18
   -1.410364E-18    7.401548E-20
   -4.180636E-19   -1.112728E-18
    7.134599E-19   -4.200198E-19
    3.307052E-19    3.645215E-19
   -1.216360E-19    2.435913E-19
   -1.790799E-19    1.587667E-20
   -7.371554E-20   -1.325972E-19
    9.650835E-20   -8.267178E-20
    6.828771E-20    6.661173E-20
   -4.190296E-20    4.741760E-20
   -2.881270E-20   -2.268841E-20
    9.179504E-21   -1.548310E-20
    7.292539E-21    9.202160E-22
    3.145095E-21    2.890131E-21
   -8.246908E-22    4.345422E-21
