 Vespa-Simulation Mixed Metabolite Output
 This file was generated by Vespa-Simulation. You can learn about and download Vespa here:
https://github.com/vespa-mrs/vespa/tree/main/vespa

 
 Output Path/Filename = /home/stud/casperc/bhome/Project1(DeepFit)/DeepFit-data-generation/Initial_spectra_linewidth_10_TE30_1024p
 Output Loop Values = (1,1,1)  ( Loop 1 = 15, Loop 2 = 15, Loop3 Inactive )
 Output Comment
 ---------------------------------------------------------------------------
 
 
 Experiment Information
 ---------------------------------------------------------------------------
 --- Experiment 32780d98-dc11-42ab-ab27-92876fb0934a ---
 Name: PRESS_3T_30TE
 Public: False
 Created: 2023-12-19T15:15:29
 Comment (abbr.): LC-Model basis set clone +2-HG
 PI: Casper Cappelen
 b0: 127.740000
 Peak Search PPM low/high: 0.000000 / 10.000000
 Blend tol. PPM/phase: 0.001500 / 50.000000
 Pulse seq.: 43be13ae-de9a-40a1-9a2d-c872d8bjs100 (PRESS Ideal)
 0 User static parameters: 
 19 Metabolites: 2-hydroxyglutarate, GPC-gp, NAAG-truncated, alanine, aspartate, creatine, gaba, glucose-alpha, glucose-beta, glutamate, glutamine, glutathione-glutamate, lactate, myo-inositol, n-acetylaspartate, phosphocreatine, phosphorylcholine-notrimethyl, scyllo-inositol, taurine
 19 Simulations: (not shown)
 
 Metabolite Formatting Information
 ---------------------------------------------------------------------------
 Name=GPC-gp Abbr=GPC Scale=1.0 Shift=0.0 PPM Start=0.0 PPM End=4.5
 Name=NAAG-truncated Abbr=NAAG Scale=1.0 Shift=0.0 PPM Start=0.0 PPM End=4.5
 Name=alanine Abbr=Ala Scale=1.0 Shift=0.0 PPM Start=0.0 PPM End=4.5
 Name=aspartate Abbr=Asp Scale=1.0 Shift=0.0 PPM Start=0.0 PPM End=4.5
 Name=creatine Abbr=Cr Scale=1.0 Shift=0.1 PPM Start=0.0 PPM End=4.5
 Name=gaba Abbr=GABA Scale=1.0 Shift=0.0 PPM Start=0.0 PPM End=4.5
 Name=glutamate Abbr=Glu Scale=1.0 Shift=0.0 PPM Start=0.0 PPM End=4.5
 Name=glutamine Abbr=Gln Scale=1.0 Shift=0.0 PPM Start=0.0 PPM End=4.5
 Name=glutathione-glutamate Abbr=GSH Scale=1.0 Shift=0.0 PPM Start=0.0 PPM End=4.5
 Name=lactate Abbr=Lac Scale=1.0 Shift=0.0 PPM Start=0.0 PPM End=4.5
 Name=myo-inositol Abbr=mI Scale=1.0 Shift=0.0 PPM Start=0.0 PPM End=4.5
 Name=n-acetylaspartate Abbr=NAA Scale=1.0 Shift=0.0 PPM Start=0.0 PPM End=4.5
 Name=phosphocreatine Abbr=PCr Scale=1.0 Shift=0.0 PPM Start=0.0 PPM End=4.5
 Name=phosphorylcholine-notrimethyl Abbr=PCho Scale=1.0 Shift=0.0 PPM Start=0.0 PPM End=4.5
 Name=taurine Abbr=Tau Scale=1.0 Shift=0.0 PPM Start=0.0 PPM End=4.5
 Name=glucose-alpha+glucose-beta Abbr=Glc Scale=1.0 Shift=0.0 PPM Start=0.0 PPM End=4.5
   Mixture of [metab*scale] = glucose-alpha*1.000000 + glucose-beta*1.000000
 
 ===========================================================================
 This LCModel format RAW file was created using the 
 Vespa-Simulation spectral simulation program using 
 the following settings and parameters 
 
 Sweep Width = 574.83 Hz 
 Vector Size = 1024 points 
 Apodization = 10.0 Hz Gaussian broadening
 B0 Field    = 127.74 MHz 
 Ref Singlet = False
  
 This data has been FFTd to be in the FREQUENCY domain
 
 $NMID ID='Glc'
 FMTDAT='(2E16.6)'
 VOLUME=1.0
 TRAMP=1.0
 $END
    5.574674E+00    6.283074E+00
    5.573758E+00    6.323029E+00
    5.572832E+00    6.363275E+00
    5.571896E+00    6.403815E+00
    5.570949E+00    6.444655E+00
    5.569991E+00    6.485797E+00
    5.569022E+00    6.527248E+00
    5.568042E+00    6.569009E+00
    5.567050E+00    6.611087E+00
    5.566046E+00    6.653486E+00
    5.565029E+00    6.696209E+00
    5.563999E+00    6.739261E+00
    5.562955E+00    6.782648E+00
    5.561896E+00    6.826374E+00
    5.560822E+00    6.870444E+00
    5.559731E+00    6.914862E+00
    5.558623E+00    6.959633E+00
    5.557496E+00    7.004764E+00
    5.556349E+00    7.050259E+00
    5.555180E+00    7.096123E+00
    5.553987E+00    7.142362E+00
    5.552767E+00    7.188983E+00
    5.551519E+00    7.235990E+00
    5.550238E+00    7.283392E+00
    5.548922E+00    7.331195E+00
    5.547565E+00    7.379408E+00
    5.546165E+00    7.428040E+00
    5.544716E+00    7.477101E+00
    5.543214E+00    7.526604E+00
    5.541655E+00    7.576562E+00
    5.540036E+00    7.626991E+00
    5.538354E+00    7.677908E+00
    5.536611E+00    7.729332E+00
    5.534808E+00    7.781284E+00
    5.532952E+00    7.833785E+00
    5.531052E+00    7.886857E+00
    5.529123E+00    7.940520E+00
    5.527183E+00    7.994793E+00
    5.525253E+00    8.049688E+00
    5.523358E+00    8.105217E+00
    5.521525E+00    8.161382E+00
    5.519781E+00    8.218179E+00
    5.518150E+00    8.275598E+00
    5.516652E+00    8.333619E+00
    5.515302E+00    8.392218E+00
    5.514105E+00    8.451367E+00
    5.513055E+00    8.511032E+00
    5.512136E+00    8.571182E+00
    5.511321E+00    8.631790E+00
    5.510572E+00    8.692835E+00
    5.509842E+00    8.754304E+00
    5.509078E+00    8.816197E+00
    5.508222E+00    8.878528E+00
    5.507218E+00    8.941325E+00
    5.506012E+00    9.004631E+00
    5.504559E+00    9.068503E+00
    5.502823E+00    9.133007E+00
    5.500783E+00    9.198219E+00
    5.498431E+00    9.264221E+00
    5.495778E+00    9.331096E+00
    5.492849E+00    9.398924E+00
    5.489684E+00    9.467776E+00
    5.486339E+00    9.537716E+00
    5.482877E+00    9.608793E+00
    5.479367E+00    9.681039E+00
    5.475883E+00    9.754469E+00
    5.472494E+00    9.829084E+00
    5.469260E+00    9.904865E+00
    5.466233E+00    9.981783E+00
    5.463447E+00    1.005980E+01
    5.460922E+00    1.013886E+01
    5.458658E+00    1.021893E+01
    5.456638E+00    1.029997E+01
    5.454833E+00    1.038194E+01
    5.453198E+00    1.046483E+01
    5.451687E+00    1.054864E+01
    5.450246E+00    1.063337E+01
    5.448830E+00    1.071907E+01
    5.447398E+00    1.080578E+01
    5.445921E+00    1.089354E+01
    5.444382E+00    1.098243E+01
    5.442778E+00    1.107249E+01
    5.441117E+00    1.116380E+01
    5.439417E+00    1.125640E+01
    5.437700E+00    1.135034E+01
    5.435992E+00    1.144564E+01
    5.434313E+00    1.154233E+01
    5.432681E+00    1.164043E+01
    5.431101E+00    1.173994E+01
    5.429572E+00    1.184088E+01
    5.428081E+00    1.194327E+01
    5.426609E+00    1.204711E+01
    5.425126E+00    1.215244E+01
    5.423603E+00    1.225929E+01
    5.422009E+00    1.236772E+01
    5.420315E+00    1.247779E+01
    5.418495E+00    1.258955E+01
    5.416531E+00    1.270309E+01
    5.414413E+00    1.281848E+01
    5.412136E+00    1.293581E+01
    5.409702E+00    1.305515E+01
    5.407118E+00    1.317659E+01
    5.404395E+00    1.330021E+01
    5.401543E+00    1.342608E+01
    5.398575E+00    1.355429E+01
    5.395501E+00    1.368490E+01
    5.392330E+00    1.381799E+01
    5.389065E+00    1.395364E+01
    5.385710E+00    1.409193E+01
    5.382265E+00    1.423296E+01
    5.378729E+00    1.437680E+01
    5.375100E+00    1.452357E+01
    5.371377E+00    1.467336E+01
    5.367558E+00    1.482629E+01
    5.363646E+00    1.498248E+01
    5.359642E+00    1.514206E+01
    5.355550E+00    1.530514E+01
    5.351374E+00    1.547189E+01
    5.347119E+00    1.564243E+01
    5.342789E+00    1.581692E+01
    5.338389E+00    1.599552E+01
    5.333923E+00    1.617840E+01
    5.329393E+00    1.636576E+01
    5.324804E+00    1.655778E+01
    5.320164E+00    1.675468E+01
    5.315480E+00    1.695669E+01
    5.310766E+00    1.716404E+01
    5.306039E+00    1.737701E+01
    5.301322E+00    1.759586E+01
    5.296640E+00    1.782089E+01
    5.292024E+00    1.805243E+01
    5.287505E+00    1.829080E+01
    5.283115E+00    1.853636E+01
    5.278886E+00    1.878951E+01
    5.274847E+00    1.905067E+01
    5.271026E+00    1.932032E+01
    5.267453E+00    1.959899E+01
    5.264160E+00    1.988726E+01
    5.261194E+00    2.018583E+01
    5.258622E+00    2.049545E+01
    5.256546E+00    2.081703E+01
    5.255127E+00    2.115156E+01
    5.254608E+00    2.150022E+01
    5.255348E+00    2.186434E+01
    5.257869E+00    2.224541E+01
    5.262913E+00    2.264514E+01
    5.271516E+00    2.306540E+01
    5.285088E+00    2.350825E+01
    5.305520E+00    2.397585E+01
    5.335283E+00    2.447043E+01
    5.377542E+00    2.499417E+01
    5.436247E+00    2.554897E+01
    5.516197E+00    2.613634E+01
    5.623052E+00    2.675704E+01
    5.763258E+00    2.741079E+01
    5.943883E+00    2.809596E+01
    6.172317E+00    2.880924E+01
    6.455852E+00    2.954536E+01
    6.801122E+00    3.029693E+01
    7.213456E+00    3.105446E+01
    7.696159E+00    3.180655E+01
    8.249818E+00    3.254033E+01
    8.871696E+00    3.324219E+01
    9.555319E+00    3.389867E+01
    1.029034E+01    3.449762E+01
    1.106275E+01    3.502937E+01
    1.185549E+01    3.548793E+01
    1.264942E+01    3.587198E+01
    1.342468E+01    3.618559E+01
    1.416222E+01    3.643858E+01
    1.484546E+01    3.664628E+01
    1.546194E+01    3.682890E+01
    1.600463E+01    3.701038E+01
    1.647300E+01    3.721685E+01
    1.687350E+01    3.747482E+01
    1.721962E+01    3.780931E+01
    1.753132E+01    3.824201E+01
    1.783399E+01    3.878971E+01
    1.815708E+01    3.946304E+01
    1.853239E+01    4.026568E+01
    1.899227E+01    4.119408E+01
    1.956784E+01    4.223766E+01
    2.028736E+01    4.337951E+01
    2.117493E+01    4.459748E+01
    2.224955E+01    4.586560E+01
    2.352475E+01    4.715566E+01
    2.500868E+01    4.843876E+01
    2.670481E+01    4.968675E+01
    2.861305E+01    5.087317E+01
    3.073123E+01    5.197370E+01
    3.305655E+01    5.296588E+01
    3.558692E+01    5.382807E+01
    3.832167E+01    5.453777E+01
    4.126141E+01    5.506954E+01
    4.440686E+01    5.539279E+01
    4.775652E+01    5.547003E+01
    5.130329E+01    5.525604E+01
    5.503054E+01    5.469837E+01
    5.890803E+01    5.373952E+01
    6.288845E+01    5.232091E+01
    6.690525E+01    5.038841E+01
    7.087247E+01    4.789887E+01
    7.468694E+01    4.482705E+01
    7.823298E+01    4.117188E+01
    8.138941E+01    3.696116E+01
    8.403817E+01    3.225392E+01
