 Vespa-Simulation Mixed Metabolite Output
 This file was generated by Vespa-Simulation. You can learn about and download Vespa here:
https://github.com/vespa-mrs/vespa/tree/main/vespa

 
 Output Path/Filename = /home/stud/casperc/bhome/Project1(DeepFit)/DeepFit-data-generation/Initial_spectra_linewidth_10_TE30_1024p
 Output Loop Values = (1,1,1)  ( Loop 1 = 15, Loop 2 = 15, Loop3 Inactive )
 Output Comment
 ---------------------------------------------------------------------------
 
 
 Experiment Information
 ---------------------------------------------------------------------------
 --- Experiment 32780d98-dc11-42ab-ab27-92876fb0934a ---
 Name: PRESS_3T_30TE
 Public: False
 Created: 2023-12-19T15:15:29
 Comment (abbr.): LC-Model basis set clone +2-HG
 PI: Casper Cappelen
 b0: 127.740000
 Peak Search PPM low/high: 0.000000 / 10.000000
 Blend tol. PPM/phase: 0.001500 / 50.000000
 Pulse seq.: 43be13ae-de9a-40a1-9a2d-c872d8bjs100 (PRESS Ideal)
 0 User static parameters: 
 19 Metabolites: 2-hydroxyglutarate, GPC-gp, NAAG-truncated, alanine, aspartate, creatine, gaba, glucose-alpha, glucose-beta, glutamate, glutamine, glutathione-glutamate, lactate, myo-inositol, n-acetylaspartate, phosphocreatine, phosphorylcholine-notrimethyl, scyllo-inositol, taurine
 19 Simulations: (not shown)
 
 Metabolite Formatting Information
 ---------------------------------------------------------------------------
 Name=GPC-gp Abbr=GPC Scale=1.0 Shift=0.0 PPM Start=0.0 PPM End=4.5
 Name=NAAG-truncated Abbr=NAAG Scale=1.0 Shift=0.0 PPM Start=0.0 PPM End=4.5
 Name=alanine Abbr=Ala Scale=1.0 Shift=0.0 PPM Start=0.0 PPM End=4.5
 Name=aspartate Abbr=Asp Scale=1.0 Shift=0.0 PPM Start=0.0 PPM End=4.5
 Name=creatine Abbr=Cr Scale=1.0 Shift=0.1 PPM Start=0.0 PPM End=4.5
 Name=gaba Abbr=GABA Scale=1.0 Shift=0.0 PPM Start=0.0 PPM End=4.5
 Name=glutamate Abbr=Glu Scale=1.0 Shift=0.0 PPM Start=0.0 PPM End=4.5
 Name=glutamine Abbr=Gln Scale=1.0 Shift=0.0 PPM Start=0.0 PPM End=4.5
 Name=glutathione-glutamate Abbr=GSH Scale=1.0 Shift=0.0 PPM Start=0.0 PPM End=4.5
 Name=lactate Abbr=Lac Scale=1.0 Shift=0.0 PPM Start=0.0 PPM End=4.5
 Name=myo-inositol Abbr=mI Scale=1.0 Shift=0.0 PPM Start=0.0 PPM End=4.5
 Name=n-acetylaspartate Abbr=NAA Scale=1.0 Shift=0.0 PPM Start=0.0 PPM End=4.5
 Name=phosphocreatine Abbr=PCr Scale=1.0 Shift=0.0 PPM Start=0.0 PPM End=4.5
 Name=phosphorylcholine-notrimethyl Abbr=PCho Scale=1.0 Shift=0.0 PPM Start=0.0 PPM End=4.5
 Name=taurine Abbr=Tau Scale=1.0 Shift=0.0 PPM Start=0.0 PPM End=4.5
 Name=glucose-alpha+glucose-beta Abbr=Glc Scale=1.0 Shift=0.0 PPM Start=0.0 PPM End=4.5
   Mixture of [metab*scale] = glucose-alpha*1.000000 + glucose-beta*1.000000
 
 ===========================================================================
 This LCModel format RAW file was created using the 
 Vespa-Simulation spectral simulation program using 
 the following settings and parameters 
 
 Sweep Width = 574.83 Hz 
 Vector Size = 1024 points 
 Apodization = 10.0 Hz Gaussian broadening
 B0 Field    = 127.74 MHz 
 Ref Singlet = False
  
 $NMID ID='Gln'
 FMTDAT='(2E16.6)'
 VOLUME=1.0
 TRAMP=1.0
 $END
    3.658120E+00    9.291767E-02
   -2.680607E+00   -6.249379E-02
    1.831482E+00    1.480788E+00
   -2.191489E+00   -1.906739E+00
    1.510475E+00    9.775523E-01
   -1.767286E-01   -9.928571E-01
    2.681818E-01    1.268543E+00
   -6.481142E-01   -2.977313E-01
    1.122616E-01   -3.971282E-01
   -1.302864E-01    3.001694E-02
    8.991135E-01   -9.963533E-02
   -9.462681E-01    5.244883E-01
    6.278171E-01   -1.646573E-01
   -8.622343E-01   -2.996440E-01
    9.269660E-01    1.559634E-01
   -4.674037E-01   -1.426799E-01
    2.607566E-01    4.058869E-01
   -3.104670E-01   -3.154660E-01
    1.215568E-01    6.367546E-02
    5.477750E-02   -5.893098E-02
    2.140832E-02    4.951319E-02
   -6.865909E-02    8.735619E-02
    2.001252E-02   -1.221848E-01
   -3.829320E-02    7.152317E-02
    7.491996E-02   -6.851548E-02
   -5.715580E-02    7.117174E-02
    3.606296E-02   -5.242271E-02
   -2.396112E-02    4.591107E-02
    1.189473E-02   -4.305679E-02
   -1.233606E-02    4.487789E-02
    9.662275E-03   -5.504762E-02
   -4.198741E-03    5.157823E-02
    1.272876E-02   -4.353350E-02
   -1.944506E-02    4.391854E-02
    1.868902E-02   -4.079322E-02
   -1.771542E-02    3.838188E-02
    1.176827E-02   -3.659099E-02
   -1.479636E-02    3.291292E-02
    2.479071E-02   -4.861901E-02
   -1.643757E-02    6.650713E-02
    2.067908E-02   -5.694560E-02
   -5.892164E-02    6.173824E-02
    7.294247E-02   -8.863047E-02
   -6.617822E-02    7.123250E-02
    1.023208E-01   -3.434817E-02
   -1.330572E-01    4.166191E-02
    1.044951E-01   -3.257657E-02
   -9.327929E-02   -2.389668E-02
    1.141602E-01    3.761220E-02
   -8.147024E-02   -1.440836E-02
    3.029638E-02    3.623214E-02
   -3.702931E-02   -5.231616E-02
    3.826382E-02    8.683071E-03
    6.904344E-04    1.436562E-02
    1.267125E-03    2.489838E-03
   -3.741225E-02    1.662627E-02
    3.312896E-02   -4.601203E-02
   -2.414990E-02    2.509065E-02
    5.328589E-02   -4.826967E-03
   -6.279494E-02    1.697346E-02
    3.872098E-02   -6.777664E-03
   -3.632379E-02   -2.203577E-02
    4.327682E-02    1.959677E-02
   -2.195650E-02   -8.833393E-03
    4.032803E-03    1.963804E-02
   -9.891676E-03   -2.016421E-02
    7.028721E-03    2.617557E-03
    5.235648E-03    8.759977E-04
   -8.609928E-04    4.219695E-03
   -7.734355E-03    3.153394E-03
    3.776535E-03   -8.412090E-03
   -2.524090E-03    1.647505E-03
    8.840446E-03    8.056947E-04
   -8.212061E-03    2.567620E-03
    3.176786E-03    1.844218E-04
   -3.903073E-03   -4.162913E-03
    4.680147E-03    2.099509E-03
   -1.054012E-03   -6.587692E-04
   -3.920275E-04    2.487423E-03
   -1.031994E-03   -1.927512E-03
    3.523051E-04   -1.781956E-04
    9.086867E-04   -1.186214E-04
   -5.024188E-05    7.199527E-04
   -5.511011E-04    2.064068E-04
   -1.339833E-04   -4.725217E-04
    1.388169E-04   -2.055647E-04
    3.888987E-04    1.430743E-04
   -1.792860E-04    2.229365E-04
   -1.291521E-04    2.144072E-05
   -7.409601E-05   -1.969860E-04
    1.386665E-04   -2.384299E-05
    6.179799E-05    5.562624E-05
   -5.254247E-05    8.731019E-05
   -5.438038E-05   -4.103516E-05
   -2.554397E-06   -3.815180E-05
    5.342365E-05   -1.621766E-05
   -4.300957E-06    4.015644E-05
   -3.495341E-06    6.342101E-06
   -3.196705E-05   -8.694272E-06
    2.409504E-05   -1.346845E-05
   -4.478232E-06    1.786637E-07
    1.249777E-05    1.321001E-05
   -1.559533E-05   -4.304992E-06
    4.205073E-06    1.637455E-06
   -1.297529E-06   -7.555151E-06
    4.384669E-06    5.661166E-06
   -1.886211E-06   -1.200214E-06
   -7.616906E-07    1.764716E-06
   -5.091938E-07   -2.230870E-06
    1.123974E-06    5.256312E-07
   -2.377989E-07   -2.945965E-08
    2.607440E-07    6.071480E-07
   -7.192103E-07   -4.961932E-07
    5.344775E-07    2.052499E-07
   -2.612384E-07   -3.399376E-07
    2.672327E-07    4.388346E-07
   -2.325858E-07   -3.300418E-07
    9.584991E-08    2.551678E-07
   -2.004050E-08   -2.460064E-07
    1.054385E-08    2.052862E-07
    5.069337E-09   -1.380729E-07
   -3.023040E-08    9.600773E-08
    3.305294E-08   -7.869566E-08
   -2.004011E-08    5.706684E-08
    1.672537E-08   -3.430038E-08
   -1.826100E-08    2.640298E-08
    1.226772E-08   -2.384176E-08
   -7.340388E-09    1.642952E-08
    8.417197E-09   -1.151830E-08
   -7.833463E-09    1.074772E-08
    5.366336E-09   -7.967587E-09
   -5.160408E-09    4.670965E-09
    4.896940E-09   -3.646726E-09
   -3.247355E-09    2.520069E-09
    2.444192E-09   -9.959103E-10
   -2.105470E-09    6.871336E-10
    1.158286E-09   -6.339764E-10
   -6.250777E-10    1.508473E-10
    6.444718E-10   -1.266250E-10
   -3.723533E-10    3.507681E-10
    1.166265E-10   -1.921894E-10
   -2.278798E-10    7.237631E-11
    2.391558E-10   -1.855089E-10
   -9.177023E-11    1.407101E-10
    1.016767E-10   -5.924866E-12
   -1.451937E-10    2.309063E-11
    6.902347E-11   -4.434054E-11
   -2.580574E-11   -1.677013E-11
    4.958943E-11    2.837997E-11
   -3.208962E-11    3.019028E-12
   -9.513722E-13    5.760341E-12
   -5.151878E-12   -1.960689E-11
    1.090710E-11    5.365273E-12
    1.906871E-12    1.099164E-12
   -4.216914E-12    6.166153E-12
   -2.022145E-12   -4.241486E-12
    1.174507E-13   -1.307664E-12
    2.828433E-12   -3.202576E-13
   -4.708180E-13    1.730596E-12
   -6.046499E-13    3.589088E-13
   -7.172486E-13   -7.140319E-13
    4.917774E-13   -3.872619E-13
    3.645762E-13    1.424316E-13
   -7.723154E-14    3.144874E-13
   -1.963948E-13    3.590948E-14
   -6.980743E-14   -1.954568E-13
    1.040703E-13   -1.243079E-14
    6.571567E-14    1.127567E-14
   -4.425979E-14    8.566326E-14
   -1.865109E-14   -3.482032E-14
   -2.001978E-14   -1.406335E-14
    3.669224E-14   -1.108246E-14
   -7.114381E-15    1.335811E-14
    2.534524E-15    7.919672E-15
   -1.157090E-14   -6.230730E-15
    5.017888E-15   -1.503684E-15
    1.197205E-15   -2.037333E-15
    1.154023E-15    3.732901E-15
   -1.538516E-15   -5.620568E-16
   -5.726530E-16   -5.077158E-17
    4.562570E-16   -8.888381E-16
    3.150469E-16    3.684788E-16
   -8.923393E-19    1.808018E-16
   -1.988580E-16    5.751439E-17
   -4.604807E-17   -1.340773E-16
    8.455375E-17   -3.077833E-17
    1.636803E-17    2.227103E-17
    4.102589E-18    4.384051E-17
   -3.676984E-17   -2.041840E-17
    1.079439E-17    4.783971E-19
    2.385093E-18   -1.468116E-17
    5.478296E-18    1.508499E-17
   -3.304817E-18   -5.154346E-18
   -2.381212E-18    3.954210E-18
    1.485203E-18   -4.668221E-18
   -1.596405E-19    2.111991E-18
    8.973346E-19   -5.841958E-19
   -8.899932E-19    6.890159E-19
    2.471606E-19   -4.408327E-19
   -1.148787E-19    4.114538E-20
    1.561759E-19   -3.435591E-20
   -4.800542E-20    8.812804E-20
   -1.427394E-20   -3.910306E-20
   -5.472817E-21    1.772199E-20
    1.000098E-20   -2.970180E-20
   -3.826042E-22    2.410538E-20
    2.016682E-21   -1.189267E-20
   -5.362068E-21    7.980464E-21
