 Vespa-Simulation Mixed Metabolite Output
 This file was generated by Vespa-Simulation. You can learn about and download Vespa here:
https://github.com/vespa-mrs/vespa/tree/main/vespa

 
 Output Path/Filename = /home/stud/casperc/bhome/Project1(DeepFit)/DeepFit-data-generation/Initial_spectra_linewidth_10_TE30_1024p
 Output Loop Values = (1,1,1)  ( Loop 1 = 15, Loop 2 = 15, Loop3 Inactive )
 Output Comment
 ---------------------------------------------------------------------------
 
 
 Experiment Information
 ---------------------------------------------------------------------------
 --- Experiment 32780d98-dc11-42ab-ab27-92876fb0934a ---
 Name: PRESS_3T_30TE
 Public: False
 Created: 2023-12-19T15:15:29
 Comment (abbr.): LC-Model basis set clone +2-HG
 PI: Casper Cappelen
 b0: 127.740000
 Peak Search PPM low/high: 0.000000 / 10.000000
 Blend tol. PPM/phase: 0.001500 / 50.000000
 Pulse seq.: 43be13ae-de9a-40a1-9a2d-c872d8bjs100 (PRESS Ideal)
 0 User static parameters: 
 19 Metabolites: 2-hydroxyglutarate, GPC-gp, NAAG-truncated, alanine, aspartate, creatine, gaba, glucose-alpha, glucose-beta, glutamate, glutamine, glutathione-glutamate, lactate, myo-inositol, n-acetylaspartate, phosphocreatine, phosphorylcholine-notrimethyl, scyllo-inositol, taurine
 19 Simulations: (not shown)
 
 Metabolite Formatting Information
 ---------------------------------------------------------------------------
 Name=GPC-gp Abbr=GPC Scale=1.0 Shift=0.0 PPM Start=0.0 PPM End=4.5
 Name=NAAG-truncated Abbr=NAAG Scale=1.0 Shift=0.0 PPM Start=0.0 PPM End=4.5
 Name=alanine Abbr=Ala Scale=1.0 Shift=0.0 PPM Start=0.0 PPM End=4.5
 Name=aspartate Abbr=Asp Scale=1.0 Shift=0.0 PPM Start=0.0 PPM End=4.5
 Name=creatine Abbr=Cr Scale=1.0 Shift=0.1 PPM Start=0.0 PPM End=4.5
 Name=gaba Abbr=GABA Scale=1.0 Shift=0.0 PPM Start=0.0 PPM End=4.5
 Name=glutamate Abbr=Glu Scale=1.0 Shift=0.0 PPM Start=0.0 PPM End=4.5
 Name=glutamine Abbr=Gln Scale=1.0 Shift=0.0 PPM Start=0.0 PPM End=4.5
 Name=glutathione-glutamate Abbr=GSH Scale=1.0 Shift=0.0 PPM Start=0.0 PPM End=4.5
 Name=lactate Abbr=Lac Scale=1.0 Shift=0.0 PPM Start=0.0 PPM End=4.5
 Name=myo-inositol Abbr=mI Scale=1.0 Shift=0.0 PPM Start=0.0 PPM End=4.5
 Name=n-acetylaspartate Abbr=NAA Scale=1.0 Shift=0.0 PPM Start=0.0 PPM End=4.5
 Name=phosphocreatine Abbr=PCr Scale=1.0 Shift=0.0 PPM Start=0.0 PPM End=4.5
 Name=phosphorylcholine-notrimethyl Abbr=PCho Scale=1.0 Shift=0.0 PPM Start=0.0 PPM End=4.5
 Name=taurine Abbr=Tau Scale=1.0 Shift=0.0 PPM Start=0.0 PPM End=4.5
 Name=glucose-alpha+glucose-beta Abbr=Glc Scale=1.0 Shift=0.0 PPM Start=0.0 PPM End=4.5
   Mixture of [metab*scale] = glucose-alpha*1.000000 + glucose-beta*1.000000
 
 ===========================================================================
 This LCModel format RAW file was created using the 
 Vespa-Simulation spectral simulation program using 
 the following settings and parameters 
 
 Sweep Width = 574.83 Hz 
 Vector Size = 1024 points 
 Apodization = 10.0 Hz Gaussian broadening
 B0 Field    = 127.74 MHz 
 Ref Singlet = False
  
 This data has been FFTd to be in the FREQUENCY domain
 
 $NMID ID='Gln'
 FMTDAT='(2E16.6)'
 VOLUME=1.0
 TRAMP=1.0
 $END
    1.829767E+00    3.206213E-01
    1.829712E+00    3.281365E-01
    1.829658E+00    3.356711E-01
    1.829605E+00    3.432256E-01
    1.829554E+00    3.508004E-01
    1.829504E+00    3.583958E-01
    1.829456E+00    3.660125E-01
    1.829409E+00    3.736508E-01
    1.829364E+00    3.813111E-01
    1.829320E+00    3.889939E-01
    1.829278E+00    3.966996E-01
    1.829238E+00    4.044287E-01
    1.829200E+00    4.121815E-01
    1.829164E+00    4.199586E-01
    1.829129E+00    4.277604E-01
    1.829095E+00    4.355875E-01
    1.829064E+00    4.434403E-01
    1.829034E+00    4.513196E-01
    1.829006E+00    4.592258E-01
    1.828980E+00    4.671595E-01
    1.828955E+00    4.751214E-01
    1.828932E+00    4.831120E-01
    1.828912E+00    4.911321E-01
    1.828893E+00    4.991821E-01
    1.828876E+00    5.072627E-01
    1.828862E+00    5.153745E-01
    1.828850E+00    5.235181E-01
    1.828841E+00    5.316939E-01
    1.828834E+00    5.399027E-01
    1.828830E+00    5.481449E-01
    1.828829E+00    5.564211E-01
    1.828831E+00    5.647320E-01
    1.828835E+00    5.730781E-01
    1.828842E+00    5.814601E-01
    1.828851E+00    5.898787E-01
    1.828864E+00    5.983347E-01
    1.828879E+00    6.068288E-01
    1.828896E+00    6.153618E-01
    1.828917E+00    6.239346E-01
    1.828940E+00    6.325480E-01
    1.828966E+00    6.412030E-01
    1.828995E+00    6.499003E-01
    1.829028E+00    6.586409E-01
    1.829064E+00    6.674256E-01
    1.829103E+00    6.762552E-01
    1.829146E+00    6.851307E-01
    1.829193E+00    6.940527E-01
    1.829243E+00    7.030223E-01
    1.829298E+00    7.120403E-01
    1.829357E+00    7.211075E-01
    1.829420E+00    7.302250E-01
    1.829487E+00    7.393936E-01
    1.829559E+00    7.486144E-01
    1.829635E+00    7.578884E-01
    1.829715E+00    7.672168E-01
    1.829800E+00    7.766007E-01
    1.829889E+00    7.860411E-01
    1.829983E+00    7.955394E-01
    1.830082E+00    8.050967E-01
    1.830187E+00    8.147142E-01
    1.830296E+00    8.243932E-01
    1.830411E+00    8.341349E-01
    1.830531E+00    8.439405E-01
    1.830657E+00    8.538115E-01
    1.830789E+00    8.637490E-01
    1.830926E+00    8.737545E-01
    1.831070E+00    8.838294E-01
    1.831221E+00    8.939750E-01
    1.831377E+00    9.041931E-01
    1.831541E+00    9.144849E-01
    1.831711E+00    9.248522E-01
    1.831888E+00    9.352966E-01
    1.832072E+00    9.458197E-01
    1.832263E+00    9.564233E-01
    1.832462E+00    9.671090E-01
    1.832669E+00    9.778788E-01
    1.832883E+00    9.887343E-01
    1.833106E+00    9.996774E-01
    1.833338E+00    1.010710E+00
    1.833578E+00    1.021834E+00
    1.833827E+00    1.033052E+00
    1.834085E+00    1.044365E+00
    1.834352E+00    1.055775E+00
    1.834628E+00    1.067286E+00
    1.834914E+00    1.078898E+00
    1.835209E+00    1.090614E+00
    1.835514E+00    1.102437E+00
    1.835828E+00    1.114369E+00
    1.836151E+00    1.126413E+00
    1.836484E+00    1.138570E+00
    1.836827E+00    1.150845E+00
    1.837178E+00    1.163240E+00
    1.837538E+00    1.175757E+00
    1.837907E+00    1.188400E+00
    1.838283E+00    1.201172E+00
    1.838666E+00    1.214076E+00
    1.839054E+00    1.227117E+00
    1.839447E+00    1.240299E+00
    1.839842E+00    1.253626E+00
    1.840238E+00    1.267104E+00
    1.840634E+00    1.280739E+00
    1.841027E+00    1.294539E+00
    1.841416E+00    1.308512E+00
    1.841801E+00    1.322668E+00
    1.842181E+00    1.337017E+00
    1.842558E+00    1.351572E+00
    1.842936E+00    1.366346E+00
    1.843319E+00    1.381351E+00
    1.843715E+00    1.396600E+00
    1.844134E+00    1.412105E+00
    1.844587E+00    1.427878E+00
    1.845089E+00    1.443928E+00
    1.845655E+00    1.460260E+00
    1.846301E+00    1.476878E+00
    1.847041E+00    1.493782E+00
    1.847891E+00    1.510970E+00
    1.848863E+00    1.528436E+00
    1.849966E+00    1.546171E+00
    1.851206E+00    1.564167E+00
    1.852586E+00    1.582416E+00
    1.854105E+00    1.600906E+00
    1.855758E+00    1.619633E+00
    1.857538E+00    1.638589E+00
    1.859436E+00    1.657773E+00
    1.861440E+00    1.677185E+00
    1.863537E+00    1.696827E+00
    1.865715E+00    1.716707E+00
    1.867958E+00    1.736834E+00
    1.870252E+00    1.757222E+00
    1.872582E+00    1.777887E+00
    1.874936E+00    1.798851E+00
    1.877302E+00    1.820139E+00
    1.879669E+00    1.841781E+00
    1.882031E+00    1.863811E+00
    1.884386E+00    1.886264E+00
    1.886737E+00    1.909179E+00
    1.889093E+00    1.932597E+00
    1.891466E+00    1.956554E+00
    1.893874E+00    1.981090E+00
    1.896338E+00    2.006237E+00
    1.898878E+00    2.032028E+00
    1.901518E+00    2.058492E+00
    1.904277E+00    2.085656E+00
    1.907176E+00    2.113549E+00
    1.910231E+00    2.142200E+00
    1.913460E+00    2.171643E+00
    1.916879E+00    2.201914E+00
    1.920507E+00    2.233056E+00
    1.924368E+00    2.265116E+00
    1.928491E+00    2.298146E+00
    1.932913E+00    2.332195E+00
    1.937676E+00    2.367318E+00
    1.942829E+00    2.403563E+00
    1.948427E+00    2.440977E+00
    1.954525E+00    2.479599E+00
    1.961178E+00    2.519468E+00
    1.968439E+00    2.560619E+00
    1.976356E+00    2.603086E+00
    1.984970E+00    2.646907E+00
    1.994318E+00    2.692129E+00
    2.004432E+00    2.738806E+00
    2.015341E+00    2.787011E+00
    2.027079E+00    2.836832E+00
    2.039681E+00    2.888379E+00
    2.053196E+00    2.941781E+00
    2.067684E+00    2.997191E+00
    2.083227E+00    3.054787E+00
    2.099931E+00    3.114768E+00
    2.117931E+00    3.177356E+00
    2.137396E+00    3.242800E+00
    2.158541E+00    3.311372E+00
    2.181629E+00    3.383369E+00
    2.206986E+00    3.459113E+00
    2.235017E+00    3.538950E+00
    2.266218E+00    3.623243E+00
    2.301203E+00    3.712368E+00
    2.340727E+00    3.806690E+00
    2.385712E+00    3.906547E+00
    2.437275E+00    4.012205E+00
    2.496748E+00    4.123811E+00
    2.565695E+00    4.241321E+00
    2.645905E+00    4.364419E+00
    2.739364E+00    4.492414E+00
    2.848194E+00    4.624136E+00
    2.974545E+00    4.757833E+00
    3.120443E+00    4.891081E+00
    3.287587E+00    5.020738E+00
    3.477108E+00    5.142956E+00
    3.689296E+00    5.253275E+00
    3.923342E+00    5.346813E+00
    4.177110E+00    5.418582E+00
    4.447003E+00    5.463889E+00
    4.727964E+00    5.478834E+00
    5.013650E+00    5.460839E+00
    5.296817E+00    5.409139E+00
    5.569903E+00    5.325171E+00
    5.825785E+00    5.212759E+00
    6.058636E+00    5.078019E+00
    6.264780E+00    4.928940E+00
    6.443403E+00    4.774635E+00
    6.597002E+00    4.624282E+00
    6.731428E+00    4.485900E+00
    6.855454E+00    4.365076E+00
    6.979856E+00    4.263862E+00
    7.116052E+00    4.180027E+00
    7.274468E+00    4.106842E+00
