 Vespa-Simulation Mixed Metabolite Output
 This file was generated by Vespa-Simulation. You can learn about and download Vespa here:
https://github.com/vespa-mrs/vespa/tree/main/vespa

 
 Output Path/Filename = /home/stud/casperc/bhome/Project1(DeepFit)/DeepFit-data-generation/Initial_spectra_linewidth_10_TE30_1024p
 Output Loop Values = (1,1,1)  ( Loop 1 = 15, Loop 2 = 15, Loop3 Inactive )
 Output Comment
 ---------------------------------------------------------------------------
 
 
 Experiment Information
 ---------------------------------------------------------------------------
 --- Experiment 32780d98-dc11-42ab-ab27-92876fb0934a ---
 Name: PRESS_3T_30TE
 Public: False
 Created: 2023-12-19T15:15:29
 Comment (abbr.): LC-Model basis set clone +2-HG
 PI: Casper Cappelen
 b0: 127.740000
 Peak Search PPM low/high: 0.000000 / 10.000000
 Blend tol. PPM/phase: 0.001500 / 50.000000
 Pulse seq.: 43be13ae-de9a-40a1-9a2d-c872d8bjs100 (PRESS Ideal)
 0 User static parameters: 
 19 Metabolites: 2-hydroxyglutarate, GPC-gp, NAAG-truncated, alanine, aspartate, creatine, gaba, glucose-alpha, glucose-beta, glutamate, glutamine, glutathione-glutamate, lactate, myo-inositol, n-acetylaspartate, phosphocreatine, phosphorylcholine-notrimethyl, scyllo-inositol, taurine
 19 Simulations: (not shown)
 
 Metabolite Formatting Information
 ---------------------------------------------------------------------------
 Name=GPC-gp Abbr=GPC Scale=1.0 Shift=0.0 PPM Start=0.0 PPM End=4.5
 Name=NAAG-truncated Abbr=NAAG Scale=1.0 Shift=0.0 PPM Start=0.0 PPM End=4.5
 Name=alanine Abbr=Ala Scale=1.0 Shift=0.0 PPM Start=0.0 PPM End=4.5
 Name=aspartate Abbr=Asp Scale=1.0 Shift=0.0 PPM Start=0.0 PPM End=4.5
 Name=creatine Abbr=Cr Scale=1.0 Shift=0.1 PPM Start=0.0 PPM End=4.5
 Name=gaba Abbr=GABA Scale=1.0 Shift=0.0 PPM Start=0.0 PPM End=4.5
 Name=glutamate Abbr=Glu Scale=1.0 Shift=0.0 PPM Start=0.0 PPM End=4.5
 Name=glutamine Abbr=Gln Scale=1.0 Shift=0.0 PPM Start=0.0 PPM End=4.5
 Name=glutathione-glutamate Abbr=GSH Scale=1.0 Shift=0.0 PPM Start=0.0 PPM End=4.5
 Name=lactate Abbr=Lac Scale=1.0 Shift=0.0 PPM Start=0.0 PPM End=4.5
 Name=myo-inositol Abbr=mI Scale=1.0 Shift=0.0 PPM Start=0.0 PPM End=4.5
 Name=n-acetylaspartate Abbr=NAA Scale=1.0 Shift=0.0 PPM Start=0.0 PPM End=4.5
 Name=phosphocreatine Abbr=PCr Scale=1.0 Shift=0.0 PPM Start=0.0 PPM End=4.5
 Name=phosphorylcholine-notrimethyl Abbr=PCho Scale=1.0 Shift=0.0 PPM Start=0.0 PPM End=4.5
 Name=taurine Abbr=Tau Scale=1.0 Shift=0.0 PPM Start=0.0 PPM End=4.5
 Name=glucose-alpha+glucose-beta Abbr=Glc Scale=1.0 Shift=0.0 PPM Start=0.0 PPM End=4.5
   Mixture of [metab*scale] = glucose-alpha*1.000000 + glucose-beta*1.000000
 
 ===========================================================================
 This LCModel format RAW file was created using the 
 Vespa-Simulation spectral simulation program using 
 the following settings and parameters 
 
 Sweep Width = 574.83 Hz 
 Vector Size = 1024 points 
 Apodization = 10.0 Hz Gaussian broadening
 B0 Field    = 127.74 MHz 
 Ref Singlet = False
  
 $NMID ID='Glu'
 FMTDAT='(2E16.6)'
 VOLUME=1.0
 TRAMP=1.0
 $END
    3.890338E+00    1.094111E-01
   -2.832472E+00   -4.172898E-01
    1.766633E+00    2.080821E+00
   -1.882854E+00   -2.667207E+00
    1.044989E+00    1.735571E+00
    4.249216E-01   -1.633210E+00
   -3.951793E-01    1.877276E+00
   -9.324285E-02   -9.162778E-01
   -3.652723E-01    1.894848E-01
    4.098854E-01   -6.469571E-01
    3.323568E-01    7.499379E-01
   -3.415212E-01   -3.314158E-01
   -1.753959E-01    6.073921E-01
    1.042633E-01   -1.038988E+00
   -2.800116E-02    7.503537E-01
    4.780099E-01   -4.637650E-01
   -6.777839E-01    5.574362E-01
    4.659121E-01   -3.833945E-01
   -4.488272E-01    2.191207E-03
    5.110459E-01    7.104423E-02
   -3.171454E-01   -3.168808E-02
    1.277738E-01    1.308244E-01
   -1.080362E-01   -1.578851E-01
    7.332542E-02    6.393332E-02
   -5.750374E-03   -1.356298E-02
   -4.479587E-03    7.136556E-03
   -1.487474E-02    6.757426E-03
    3.231851E-02   -2.127155E-02
   -3.517354E-02    3.723221E-02
    1.975243E-02   -3.164222E-02
   -3.005252E-02    7.203453E-03
    5.576174E-02   -1.587014E-02
   -4.318145E-02    3.104328E-02
    3.037109E-02   -3.524853E-03
   -5.312974E-02   -1.755604E-02
    5.635197E-02    8.590759E-03
   -3.206709E-02   -2.064945E-02
    2.617769E-02    4.545219E-02
   -2.322267E-02   -4.652731E-02
    3.708939E-03    4.406298E-02
    9.458090E-03   -4.560289E-02
   -1.857151E-02    3.735338E-02
    2.826423E-02   -3.382982E-02
   -2.323552E-02    3.108254E-02
    2.311523E-02   -1.612576E-02
   -3.801468E-02    1.690927E-02
    3.435490E-02   -3.039052E-02
   -2.590987E-02    1.697542E-02
    4.750712E-02   -1.163509E-03
   -6.010083E-02    1.221344E-02
    4.196010E-02   -4.782176E-03
   -4.328809E-02   -2.742343E-02
    5.845274E-02    3.026210E-02
   -3.871565E-02   -2.097540E-02
    1.548201E-02    4.171392E-02
   -2.345601E-02   -5.318631E-02
    1.871224E-02    3.360342E-02
    8.101961E-03   -3.072736E-02
   -1.044978E-02    4.348547E-02
    2.651533E-04   -3.046847E-02
   -1.320402E-02    1.301888E-02
    2.265126E-02   -1.957307E-02
   -9.891329E-03    2.023039E-02
    7.056185E-03   -4.723408E-03
   -1.720003E-02    3.450572E-03
    1.306623E-02   -1.163010E-02
   -4.674237E-03    5.356539E-03
    1.038327E-02    1.882052E-03
   -1.384773E-02    3.048698E-03
    6.762731E-03   -3.416862E-03
   -5.374925E-03   -3.963120E-03
    9.237323E-03    4.101240E-03
   -5.961136E-03   -5.059938E-04
    1.449835E-03    3.199304E-03
   -3.097309E-03   -5.361753E-03
    3.531143E-03    2.416707E-03
   -2.591291E-04   -1.647782E-03
   -2.583974E-04    3.648171E-03
   -1.081302E-03   -2.838335E-03
   -1.542625E-04    1.034034E-03
    1.505954E-03   -1.529367E-03
   -7.125761E-04    1.706522E-03
    3.816246E-04   -3.388291E-04
   -1.069739E-03   -1.223545E-04
    7.923408E-04   -3.154171E-04
   -5.414548E-05    1.581653E-05
    1.368171E-04    3.754027E-04
   -2.868472E-04   -5.149567E-05
   -2.278693E-05   -1.589607E-04
    8.782828E-05   -3.836915E-05
    1.358380E-04    3.394328E-05
   -1.260639E-04    1.113965E-04
    1.620844E-05   -3.088815E-05
   -7.027458E-05   -7.757085E-05
    9.967882E-05    3.375732E-05
   -1.699237E-05   -1.446048E-05
   -1.513473E-05    5.956279E-05
   -7.994882E-06   -4.754065E-05
   -7.418265E-06    5.853100E-06
    2.828956E-05   -5.239738E-06
   -1.342423E-05    1.000525E-05
    1.112120E-06    5.018435E-06
   -5.723750E-06   -9.779556E-06
    3.652286E-06    1.761444E-06
    3.343696E-06   -5.593290E-07
   -2.631335E-06    2.759527E-06
   -1.026957E-07   -3.277612E-07
   -6.690068E-07   -1.628423E-06
    9.572987E-07    5.723974E-07
    2.226822E-07   -5.007455E-08
   -4.721325E-07    4.534520E-07
    7.057701E-08   -3.012141E-07
   -4.461564E-08   -2.343090E-08
    1.233289E-07    1.926145E-08
   -8.431274E-08    6.185015E-08
    3.592743E-08   -8.808320E-08
   -1.875442E-08    5.795508E-08
    6.720939E-08   -1.404679E-08
   -1.089779E-07    3.345741E-08
    6.621337E-08   -3.840810E-08
   -3.839306E-08   -2.325477E-08
    6.347574E-08    4.436898E-08
   -4.698442E-08   -1.376058E-08
    2.825569E-09    1.921446E-08
   -3.083547E-09   -3.757413E-08
    1.360248E-08    1.880757E-08
    2.056238E-09   -2.502388E-09
   -8.520491E-09    1.054266E-08
   -2.332827E-09   -1.042288E-08
    2.733713E-09    8.001129E-10
    3.309647E-09   -1.853949E-09
   -1.059100E-09    5.888898E-09
   -1.421702E-09   -2.979901E-09
   -1.299075E-09    9.253036E-10
    2.273314E-09   -2.394570E-09
   -7.922990E-10    2.000893E-09
    9.252222E-10   -3.277219E-10
   -1.594575E-09    2.301293E-10
    1.033100E-09   -4.248415E-10
   -5.164824E-10   -1.311376E-10
    5.838524E-10    3.901605E-10
   -4.341047E-10   -2.039643E-10
    1.194099E-10    1.929077E-10
   -4.754776E-11   -2.492430E-10
    5.165442E-11    1.496557E-10
    1.259286E-11   -6.436465E-11
   -3.237464E-11    5.885826E-11
    6.508042E-12   -4.031100E-11
   -4.178318E-12    1.498817E-11
    9.490777E-12   -1.429714E-11
   -4.584982E-12    1.501822E-11
    4.174307E-12   -8.987186E-12
   -6.806839E-12    6.654876E-12
    5.658430E-12   -5.006759E-12
   -4.718401E-12    1.757337E-12
    4.533865E-12   -5.577563E-13
   -2.941881E-12    2.542937E-13
    1.789211E-12    7.504280E-13
   -1.663244E-12   -9.320111E-13
    1.057974E-12    5.019533E-13
   -3.728287E-13   -6.397872E-13
    3.147268E-13    7.548477E-13
   -2.295584E-13   -4.369890E-13
   -6.837422E-14    2.720608E-13
    1.259371E-13   -2.901563E-13
   -4.308661E-14    1.632211E-13
    7.153134E-14   -2.890434E-14
   -8.842812E-14    2.964855E-14
    2.942123E-14   -3.131018E-14
   -5.189426E-15   -4.538128E-15
    1.826016E-14    5.274534E-15
   -1.067075E-14    1.115988E-14
   -4.975220E-16   -6.108523E-15
   -4.685537E-15   -7.158346E-16
    7.597048E-15   -2.591033E-15
   -3.221172E-15    2.602110E-15
    1.970322E-15    1.102460E-15
   -2.844065E-15   -1.364512E-15
    1.518699E-15    2.949151E-16
   -1.915223E-16   -7.051031E-16
    2.679285E-16    8.923047E-16
   -2.504622E-16   -3.286837E-16
   -9.256140E-17    1.084855E-16
    1.052700E-16   -1.799538E-16
    1.895733E-17    8.620721E-17
    4.224082E-18    1.325494E-17
   -3.032848E-17    8.886278E-18
   -3.379794E-18   -2.318560E-17
    1.232660E-17    2.245636E-18
    1.605596E-18   -4.663081E-19
   -1.522329E-18    8.173230E-18
   -2.458233E-18   -5.076353E-18
   -8.981589E-20    1.245148E-18
    1.658598E-18   -1.829277E-18
   -5.729450E-19    1.660690E-18
    3.086791E-19   -4.571329E-19
   -5.933514E-19    1.562356E-19
    3.904220E-19   -2.079497E-19
   -1.592201E-19    4.493858E-20
    1.223061E-19    4.659309E-20
   -7.971150E-20   -2.728499E-20
    2.860402E-20    2.087374E-20
   -1.045773E-20   -1.723222E-20
    1.048664E-21    8.019685E-21
    1.867192E-21   -5.272254E-21
    8.611334E-22    1.145326E-21
    3.405658E-22    2.359411E-21
   -1.204698E-21   -5.907028E-22
