 Vespa-Simulation Mixed Metabolite Output
 This file was generated by Vespa-Simulation. You can learn about and download Vespa here:
https://github.com/vespa-mrs/vespa/tree/main/vespa

 
 Output Path/Filename = /home/stud/casperc/bhome/Project1(DeepFit)/DeepFit-data-generation/Initial_spectra_linewidth_10_TE30_1024p
 Output Loop Values = (1,1,1)  ( Loop 1 = 15, Loop 2 = 15, Loop3 Inactive )
 Output Comment
 ---------------------------------------------------------------------------
 
 
 Experiment Information
 ---------------------------------------------------------------------------
 --- Experiment 32780d98-dc11-42ab-ab27-92876fb0934a ---
 Name: PRESS_3T_30TE
 Public: False
 Created: 2023-12-19T15:15:29
 Comment (abbr.): LC-Model basis set clone +2-HG
 PI: Casper Cappelen
 b0: 127.740000
 Peak Search PPM low/high: 0.000000 / 10.000000
 Blend tol. PPM/phase: 0.001500 / 50.000000
 Pulse seq.: 43be13ae-de9a-40a1-9a2d-c872d8bjs100 (PRESS Ideal)
 0 User static parameters: 
 19 Metabolites: 2-hydroxyglutarate, GPC-gp, NAAG-truncated, alanine, aspartate, creatine, gaba, glucose-alpha, glucose-beta, glutamate, glutamine, glutathione-glutamate, lactate, myo-inositol, n-acetylaspartate, phosphocreatine, phosphorylcholine-notrimethyl, scyllo-inositol, taurine
 19 Simulations: (not shown)
 
 Metabolite Formatting Information
 ---------------------------------------------------------------------------
 Name=GPC-gp Abbr=GPC Scale=1.0 Shift=0.0 PPM Start=0.0 PPM End=4.5
 Name=NAAG-truncated Abbr=NAAG Scale=1.0 Shift=0.0 PPM Start=0.0 PPM End=4.5
 Name=alanine Abbr=Ala Scale=1.0 Shift=0.0 PPM Start=0.0 PPM End=4.5
 Name=aspartate Abbr=Asp Scale=1.0 Shift=0.0 PPM Start=0.0 PPM End=4.5
 Name=creatine Abbr=Cr Scale=1.0 Shift=0.1 PPM Start=0.0 PPM End=4.5
 Name=gaba Abbr=GABA Scale=1.0 Shift=0.0 PPM Start=0.0 PPM End=4.5
 Name=glutamate Abbr=Glu Scale=1.0 Shift=0.0 PPM Start=0.0 PPM End=4.5
 Name=glutamine Abbr=Gln Scale=1.0 Shift=0.0 PPM Start=0.0 PPM End=4.5
 Name=glutathione-glutamate Abbr=GSH Scale=1.0 Shift=0.0 PPM Start=0.0 PPM End=4.5
 Name=lactate Abbr=Lac Scale=1.0 Shift=0.0 PPM Start=0.0 PPM End=4.5
 Name=myo-inositol Abbr=mI Scale=1.0 Shift=0.0 PPM Start=0.0 PPM End=4.5
 Name=n-acetylaspartate Abbr=NAA Scale=1.0 Shift=0.0 PPM Start=0.0 PPM End=4.5
 Name=phosphocreatine Abbr=PCr Scale=1.0 Shift=0.0 PPM Start=0.0 PPM End=4.5
 Name=phosphorylcholine-notrimethyl Abbr=PCho Scale=1.0 Shift=0.0 PPM Start=0.0 PPM End=4.5
 Name=taurine Abbr=Tau Scale=1.0 Shift=0.0 PPM Start=0.0 PPM End=4.5
 Name=glucose-alpha+glucose-beta Abbr=Glc Scale=1.0 Shift=0.0 PPM Start=0.0 PPM End=4.5
   Mixture of [metab*scale] = glucose-alpha*1.000000 + glucose-beta*1.000000
 
 ===========================================================================
 This LCModel format RAW file was created using the 
 Vespa-Simulation spectral simulation program using 
 the following settings and parameters 
 
 Sweep Width = 574.83 Hz 
 Vector Size = 1024 points 
 Apodization = 10.0 Hz Gaussian broadening
 B0 Field    = 127.74 MHz 
 Ref Singlet = False
  
 This data has been FFTd to be in the FREQUENCY domain
 
 $NMID ID='Glu'
 FMTDAT='(2E16.6)'
 VOLUME=1.0
 TRAMP=1.0
 $END
    1.950081E+00    2.307421E-01
    1.949988E+00    2.386209E-01
    1.949896E+00    2.465166E-01
    1.949806E+00    2.544296E-01
    1.949718E+00    2.623602E-01
    1.949631E+00    2.703088E-01
    1.949546E+00    2.782758E-01
    1.949462E+00    2.862616E-01
    1.949380E+00    2.942667E-01
    1.949299E+00    3.022916E-01
    1.949219E+00    3.103366E-01
    1.949141E+00    3.184024E-01
    1.949065E+00    3.264894E-01
    1.948990E+00    3.345981E-01
    1.948916E+00    3.427291E-01
    1.948844E+00    3.508828E-01
    1.948773E+00    3.590599E-01
    1.948705E+00    3.672608E-01
    1.948637E+00    3.754862E-01
    1.948572E+00    3.837365E-01
    1.948508E+00    3.920124E-01
    1.948447E+00    4.003142E-01
    1.948387E+00    4.086427E-01
    1.948329E+00    4.169984E-01
    1.948273E+00    4.253818E-01
    1.948220E+00    4.337934E-01
    1.948168E+00    4.422339E-01
    1.948119E+00    4.507038E-01
    1.948073E+00    4.592038E-01
    1.948028E+00    4.677343E-01
    1.947986E+00    4.762961E-01
    1.947947E+00    4.848897E-01
    1.947909E+00    4.935159E-01
    1.947875E+00    5.021752E-01
    1.947842E+00    5.108684E-01
    1.947813E+00    5.195962E-01
    1.947786E+00    5.283593E-01
    1.947761E+00    5.371584E-01
    1.947739E+00    5.459944E-01
    1.947720E+00    5.548679E-01
    1.947704E+00    5.637799E-01
    1.947691E+00    5.727310E-01
    1.947681E+00    5.817222E-01
    1.947673E+00    5.907542E-01
    1.947670E+00    5.998279E-01
    1.947669E+00    6.089441E-01
    1.947672E+00    6.181037E-01
    1.947679E+00    6.273075E-01
    1.947689E+00    6.365563E-01
    1.947704E+00    6.458511E-01
    1.947722E+00    6.551926E-01
    1.947744E+00    6.645819E-01
    1.947770E+00    6.740199E-01
    1.947801E+00    6.835075E-01
    1.947835E+00    6.930458E-01
    1.947874E+00    7.026358E-01
    1.947917E+00    7.122786E-01
    1.947964E+00    7.219754E-01
    1.948016E+00    7.317274E-01
    1.948072E+00    7.415358E-01
    1.948133E+00    7.514018E-01
    1.948199E+00    7.613266E-01
    1.948271E+00    7.713114E-01
    1.948347E+00    7.813576E-01
    1.948430E+00    7.914664E-01
    1.948518E+00    8.016390E-01
    1.948612E+00    8.118768E-01
    1.948712E+00    8.221810E-01
    1.948818E+00    8.325531E-01
    1.948931E+00    8.429944E-01
    1.949050E+00    8.535065E-01
    1.949176E+00    8.640908E-01
    1.949309E+00    8.747490E-01
    1.949449E+00    8.854827E-01
    1.949596E+00    8.962936E-01
    1.949751E+00    9.071835E-01
    1.949913E+00    9.181541E-01
    1.950083E+00    9.292072E-01
    1.950262E+00    9.403447E-01
    1.950449E+00    9.515684E-01
    1.950645E+00    9.628802E-01
    1.950850E+00    9.742822E-01
    1.951064E+00    9.857763E-01
    1.951289E+00    9.973646E-01
    1.951523E+00    1.009049E+00
    1.951768E+00    1.020832E+00
    1.952023E+00    1.032716E+00
    1.952289E+00    1.044704E+00
    1.952567E+00    1.056796E+00
    1.952856E+00    1.068997E+00
    1.953157E+00    1.081309E+00
    1.953471E+00    1.093734E+00
    1.953798E+00    1.106274E+00
    1.954138E+00    1.118934E+00
    1.954492E+00    1.131715E+00
    1.954860E+00    1.144620E+00
    1.955243E+00    1.157653E+00
    1.955640E+00    1.170817E+00
    1.956053E+00    1.184114E+00
    1.956482E+00    1.197549E+00
    1.956927E+00    1.211125E+00
    1.957389E+00    1.224844E+00
    1.957869E+00    1.238712E+00
    1.958367E+00    1.252731E+00
    1.958883E+00    1.266906E+00
    1.959419E+00    1.281239E+00
    1.959974E+00    1.295736E+00
    1.960548E+00    1.310400E+00
    1.961143E+00    1.325235E+00
    1.961757E+00    1.340246E+00
    1.962391E+00    1.355437E+00
    1.963045E+00    1.370813E+00
    1.963718E+00    1.386378E+00
    1.964409E+00    1.402139E+00
    1.965117E+00    1.418101E+00
    1.965840E+00    1.434270E+00
    1.966576E+00    1.450653E+00
    1.967324E+00    1.467258E+00
    1.968080E+00    1.484094E+00
    1.968841E+00    1.501172E+00
    1.969605E+00    1.518502E+00
    1.970370E+00    1.536098E+00
    1.971133E+00    1.553977E+00
    1.971895E+00    1.572154E+00
    1.972656E+00    1.590650E+00
    1.973421E+00    1.609484E+00
    1.974195E+00    1.628677E+00
    1.974988E+00    1.648252E+00
    1.975813E+00    1.668227E+00
    1.976683E+00    1.688624E+00
    1.977617E+00    1.709459E+00
    1.978633E+00    1.730746E+00
    1.979751E+00    1.752498E+00
    1.980989E+00    1.774721E+00
    1.982365E+00    1.797423E+00
    1.983893E+00    1.820607E+00
    1.985584E+00    1.844276E+00
    1.987447E+00    1.868434E+00
    1.989488E+00    1.893087E+00
    1.991710E+00    1.918244E+00
    1.994116E+00    1.943915E+00
    1.996707E+00    1.970117E+00
    1.999489E+00    1.996869E+00
    2.002468E+00    2.024191E+00
    2.005652E+00    2.052107E+00
    2.009055E+00    2.080638E+00
    2.012690E+00    2.109806E+00
    2.016571E+00    2.139632E+00
    2.020712E+00    2.170131E+00
    2.025125E+00    2.201322E+00
    2.029814E+00    2.233219E+00
    2.034782E+00    2.265842E+00
    2.040021E+00    2.299213E+00
    2.045522E+00    2.333363E+00
    2.051270E+00    2.368335E+00
    2.057249E+00    2.404183E+00
    2.063444E+00    2.440977E+00
    2.069849E+00    2.478802E+00
    2.076465E+00    2.517758E+00
    2.083309E+00    2.557956E+00
    2.090413E+00    2.599517E+00
    2.097827E+00    2.642567E+00
    2.105618E+00    2.687233E+00
    2.113869E+00    2.733640E+00
    2.122674E+00    2.781909E+00
    2.132135E+00    2.832157E+00
    2.142358E+00    2.884496E+00
    2.153447E+00    2.939042E+00
    2.165505E+00    2.995918E+00
    2.178629E+00    3.055266E+00
    2.192922E+00    3.117253E+00
    2.208491E+00    3.182082E+00
    2.225465E+00    3.250006E+00
    2.244011E+00    3.321326E+00
    2.264349E+00    3.396402E+00
    2.286779E+00    3.475649E+00
    2.311708E+00    3.559531E+00
    2.339672E+00    3.648545E+00
    2.371368E+00    3.743204E+00
    2.407683E+00    3.844007E+00
    2.449714E+00    3.951394E+00
    2.498794E+00    4.065702E+00
    2.556499E+00    4.187097E+00
    2.624650E+00    4.315499E+00
    2.705295E+00    4.450490E+00
    2.800658E+00    4.591223E+00
    2.913065E+00    4.736318E+00
    3.044819E+00    4.883769E+00
    3.198046E+00    5.030878E+00
    3.374480E+00    5.174225E+00
    3.575234E+00    5.309698E+00
    3.800538E+00    5.432610E+00
    4.049503E+00    5.537904E+00
    4.319921E+00    5.620461E+00
    4.608169E+00    5.675503E+00
    4.909232E+00    5.699057E+00
    5.216901E+00    5.688432E+00
    5.524156E+00    5.642662E+00
    5.823713E+00    5.562819E+00
    6.108722E+00    5.452138E+00
    6.373522E+00    5.315887E+00
    6.614355E+00    5.160948E+00
    6.829948E+00    4.995126E+00
    7.021813E+00    4.826227E+00
    7.194207E+00    4.661020E+00
    7.353685E+00    4.504231E+00
