 Vespa-Simulation Mixed Metabolite Output
 This file was generated by Vespa-Simulation. You can learn about and download Vespa here:
https://github.com/vespa-mrs/vespa/tree/main/vespa

 
 Output Path/Filename = /home/stud/casperc/bhome/Project1(DeepFit)/DeepFit-data-generation/Initial_spectra_linewidth_10_TE30_1024p
 Output Loop Values = (1,1,1)  ( Loop 1 = 11, Loop 2 = 11, Loop3 Inactive )
 Output Comment
 ---------------------------------------------------------------------------
 
 
 Experiment Information
 ---------------------------------------------------------------------------
 --- Experiment 982623a4-1070-4538-bb82-a4cf0a440db0 ---
 Name: SyntheticDataSetDeepFitTE22
 Public: False
 Created: 2024-10-04T10:31:50
 Comment (abbr.): 
 PI: Casper Cappelen
 b0: 127.740000
 Peak Search PPM low/high: -10.000000 / 10.000000
 Blend tol. PPM/phase: 0.000150 / 50.000000
 Pulse seq.: 43be13ae-de9a-40a1-9a2d-c872d8bjs100 (PRESS Ideal)
 0 User static parameters: 
 28 Metabolites: 2-hydroxyglutarate, alanine, choline-methylene, choline-trimethyl, choline-truncated, creatine, ethanolamine, gaba, glucose-alpha, glucose-beta, glutamate, glutamine, glutathione-glutamate, glutathione-glycine-cysteine, glycine, GPC-gp, GPC-pcholine1, GPC-pcholine2, lactate, myo-inositol, n-acetylaspartate, NAAG-truncated, phosphocreatine, phosphorylcholine-notrimethyl, phosphorylcholine-trimethyl, phosphorylethanolamine, pyruvate, taurine
 28 Simulations: (not shown)
 
 Metabolite Formatting Information
 ---------------------------------------------------------------------------
 Name=2-hydroxyglutarate Abbr=2HG Scale=1.0 Shift=0.0 PPM Start=-7.81 PPM End=7.81
 Name=alanine Abbr=Ala Scale=1.0 Shift=0.0 PPM Start=-7.81 PPM End=7.81
 Name=choline-methylene Abbr=choline-methylene Scale=1.0 Shift=0.0 PPM Start=-7.81 PPM End=7.81
 Name=choline-trimethyl Abbr=choline-trimethyl Scale=1.0 Shift=0.0 PPM Start=-7.81 PPM End=7.81
 Name=choline-truncated Abbr=choline-truncated Scale=1.0 Shift=0.0 PPM Start=-7.81 PPM End=7.81
 Name=creatine Abbr=Cr Scale=1.0 Shift=0.0 PPM Start=-7.81 PPM End=7.81
 Name=ethanolamine Abbr=ETA Scale=1.0 Shift=0.0 PPM Start=-7.81 PPM End=7.81
 Name=gaba Abbr=GABA Scale=1.0 Shift=0.0 PPM Start=-7.81 PPM End=7.81
 Name=glutamate Abbr=Glu Scale=1.0 Shift=0.0 PPM Start=-7.81 PPM End=7.81
 Name=glutamine Abbr=Gln Scale=1.0 Shift=0.0 PPM Start=-7.81 PPM End=7.81
 Name=glutathione-glutamate Abbr=glutathione-glutamate Scale=1.0 Shift=0.0 PPM Start=-7.81 PPM End=7.81
 Name=glutathione-glycine-cysteine Abbr=GSH Scale=1.0 Shift=0.0 PPM Start=-7.81 PPM End=7.81
 Name=glycine Abbr=Gly Scale=1.0 Shift=0.0 PPM Start=-7.81 PPM End=7.81
 Name=GPC-gp Abbr=GPC-gp Scale=1.0 Shift=0.0 PPM Start=-7.81 PPM End=7.81
 Name=GPC-pcholine1 Abbr=GPC-pcholine1 Scale=1.0 Shift=0.0 PPM Start=-7.81 PPM End=7.81
 Name=GPC-pcholine2 Abbr=GPC-pcholine2 Scale=1.0 Shift=0.0 PPM Start=-7.81 PPM End=7.81
 Name=lactate Abbr=Lac Scale=1.0 Shift=0.0 PPM Start=-7.81 PPM End=7.81
 Name=myo-inositol Abbr=mI Scale=1.0 Shift=0.0 PPM Start=-7.81 PPM End=7.81
 Name=n-acetylaspartate Abbr=NAA Scale=1.0 Shift=0.0 PPM Start=-7.18 PPM End=7.81
 Name=NAAG-truncated Abbr=NAAG Scale=1.0 Shift=0.0 PPM Start=-7.81 PPM End=7.81
 Name=phosphocreatine Abbr=PCr Scale=1.0 Shift=0.0 PPM Start=-7.81 PPM End=7.81
 Name=phosphorylcholine-notrimethyl Abbr=phosphorylcholine-notrimethyl Scale=1.0 Shift=0.0 PPM Start=-7.81 PPM End=7.81
 Name=phosphorylcholine-trimethyl Abbr=phosphorylcholine-trimethyl Scale=1.0 Shift=0.0 PPM Start=-7.81 PPM End=7.81
 Name=phosphorylethanolamine Abbr=PE Scale=1.0 Shift=0.0 PPM Start=-7.81 PPM End=7.81
 Name=pyruvate Abbr=Pyr Scale=1.0 Shift=0.0 PPM Start=-7.51 PPM End=7.81
 Name=taurine Abbr=Tau Scale=1.0 Shift=0.0 PPM Start=7.81 PPM End=7.81
 Name=glucose-beta+glucose-alpha Abbr=Glc Scale=1.0 Shift=0.0 PPM Start=-7.81 PPM End=7.81
   Mixture of [metab*scale] = glucose-beta*1.000000 + glucose-alpha*1.000000
 
 ===========================================================================
 This LCModel format RAW file was created using the 
 Vespa-Simulation spectral simulation program using 
 the following settings and parameters 
 
 Sweep Width = 3500.0 Hz 
 Vector Size = 2048 points 
 Apodization = 15.0 Hz Lorentzian broadening
 B0 Field    = 127.74 MHz 
 Ref Singlet = False
  
 $NMID ID='glutathione-glutamate'
 FMTDAT='(2E16.6)'
 VOLUME=1.0
 TRAMP=1.0
 $END
    4.508939E+00    1.949052E-02
    3.913888E+00    2.047654E+00
    2.426990E+00    3.489883E+00
    4.803424E-01    3.991067E+00
   -1.382201E+00    3.473207E+00
   -2.665948E+00    2.147713E+00
   -3.065974E+00    4.422576E-01
   -2.546337E+00   -1.132853E+00
   -1.336860E+00   -2.136614E+00
    1.479600E-01   -2.321671E+00
    1.440068E+00   -1.695378E+00
    2.157664E+00   -5.027397E-01
    2.111589E+00    8.595194E-01
    1.348776E+00    1.968385E+00
    1.235458E-01    2.499774E+00
   -1.190100E+00    2.316546E+00
   -2.215337E+00    1.495532E+00
   -2.681606E+00    2.899430E-01
   -2.494395E+00   -9.570049E-01
   -1.747858E+00   -1.917778E+00
   -6.811914E-01   -2.372629E+00
    4.032904E-01   -2.261712E+00
    1.232692E+00   -1.685523E+00
    1.637896E+00   -8.582574E-01
    1.589334E+00   -3.279516E-02
    1.187331E+00    5.770103E-01
    6.150310E-01    8.530496E-01
    7.245674E-02    7.936478E-01
   -2.857478E-01    4.961764E-01
   -3.899009E-01    1.116759E-01
   -2.627685E-01   -2.106882E-01
    3.401650E-03   -3.702704E-01
    2.886430E-01   -3.388019E-01
    4.896266E-01   -1.567282E-01
    5.512839E-01    9.298725E-02
    4.766755E-01    3.214229E-01
    3.146055E-01    4.664736E-01
    1.324523E-01    5.104050E-01
   -1.387170E-02    4.777708E-01
   -1.009581E-01    4.167103E-01
   -1.426401E-01    3.728055E-01
   -1.779813E-01    3.666727E-01
   -2.484752E-01    3.843594E-01
   -3.746000E-01    3.840468E-01
   -5.415981E-01    3.160288E-01
   -7.006486E-01    1.476661E-01
   -7.854967E-01   -1.170315E-01
   -7.383913E-01   -4.314454E-01
   -5.355778E-01   -7.172506E-01
   -2.022551E-01   -8.891662E-01
    1.893072E-01   -8.849178E-01
    5.391310E-01   -6.898569E-01
    7.503305E-01   -3.468401E-01
    7.612747E-01    5.288439E-02
    5.680745E-01    3.958381E-01
    2.291485E-01    5.813075E-01
   -1.503114E-01    5.539255E-01
   -4.497028E-01    3.230086E-01
   -5.704708E-01   -3.822998E-02
   -4.675797E-01   -4.137048E-01
   -1.650200E-01   -6.796025E-01
    2.501302E-01   -7.426684E-01
    6.532141E-01   -5.695315E-01
    9.195412E-01   -1.980030E-01
    9.622225E-01    2.735235E-01
    7.585576E-01    7.149593E-01
    3.571266E-01    1.003138E+00
   -1.367303E-01    1.058124E+00
   -5.920050E-01    8.661456E-01
   -8.904459E-01    4.827009E-01
   -9.603555E-01    1.510489E-02
   -7.958855E-01   -4.098389E-01
   -4.564300E-01   -6.826796E-01
   -4.706978E-02   -7.420121E-01
    3.136514E-01   -5.898607E-01
    5.282767E-01   -2.879042E-01
    5.473675E-01    6.340004E-02
    3.810068E-01    3.560007E-01
    9.237327E-02    5.058003E-01
   -2.237036E-01    4.755581E-01
   -4.701659E-01    2.827170E-01
   -5.758100E-01   -9.094312E-03
   -5.141446E-01   -3.113857E-01
   -3.079732E-01   -5.378416E-01
   -1.938404E-02   -6.288162E-01
    2.706984E-01   -5.662106E-01
    4.868123E-01   -3.753575E-01
    5.796576E-01   -1.142249E-01
    5.373968E-01    1.456272E-01
    3.853421E-01    3.402325E-01
    1.750217E-01    4.301435E-01
   -3.297286E-02    4.085129E-01
   -1.868460E-01    2.991107E-01
   -2.568637E-01    1.457858E-01
   -2.406101E-01   -2.453028E-03
   -1.598119E-01   -1.059166E-01
   -5.059902E-02   -1.440741E-01
    4.899073E-02   -1.184103E-01
    1.102245E-01   -4.850003E-02
    1.204289E-01    3.662944E-02
    8.392355E-02    1.085414E-01
    1.775301E-02    1.475447E-01
   -5.563175E-02    1.468262E-01
   -1.159936E-01    1.119152E-01
   -1.507350E-01    5.648925E-02
   -1.568612E-01   -3.476527E-03
   -1.394561E-01   -5.501072E-02
   -1.078851E-01   -9.118139E-02
   -7.151627E-02   -1.113337E-01
   -3.658590E-02   -1.189930E-01
   -5.204390E-03   -1.187116E-01
    2.355890E-02   -1.133771E-01
    5.132450E-02   -1.030446E-01
    7.805988E-02   -8.563349E-02
    1.009081E-01   -5.896560E-02
    1.146905E-01   -2.312727E-02
    1.139637E-01    1.806459E-02
    9.569234E-02    5.723548E-02
    6.139527E-02    8.537079E-02
    1.776209E-02    9.483763E-02
   -2.468664E-02    8.238735E-02
   -5.460077E-02    5.094796E-02
   -6.343193E-02    9.422404E-03
   -4.851099E-02   -2.961336E-02
   -1.437770E-02   -5.365664E-02
    2.818076E-02   -5.426947E-02
    6.518632E-02   -2.998679E-02
    8.371610E-02    1.288784E-02
    7.596647E-02    6.189926E-02
    4.186947E-02    1.020662E-01
   -1.063970E-02    1.203806E-01
   -6.780959E-02    1.097909E-01
   -1.140568E-01    7.143053E-02
   -1.365496E-01    1.437048E-02
   -1.289311E-01   -4.695657E-02
   -9.314747E-02   -9.694168E-02
   -3.879074E-02   -1.232601E-01
    1.976918E-02   -1.202908E-01
    6.756266E-02   -9.050525E-02
    9.323429E-02   -4.348229E-02
    9.206861E-02    7.100316E-03
    6.695424E-02    4.747587E-02
    2.715879E-02    6.766176E-02
   -1.466708E-02    6.402496E-02
   -4.626914E-02    3.988953E-02
   -5.921808E-02    4.127141E-03
   -5.102346E-02   -3.175180E-02
   -2.540226E-02   -5.702753E-02
    9.223494E-03   -6.475036E-02
    4.245636E-02   -5.341319E-02
    6.499425E-02   -2.695463E-02
    7.113982E-02    6.773559E-03
    6.008389E-02    3.850423E-02
    3.569896E-02    6.023935E-02
    5.059270E-03    6.730070E-02
   -2.379042E-02    5.928723E-02
   -4.410103E-02    3.973723E-02
   -5.208280E-02    1.474591E-02
   -4.756761E-02   -8.958203E-03
   -3.359907E-02   -2.588996E-02
   -1.519823E-02   -3.308634E-02
    2.246081E-03   -3.054912E-02
    1.446589E-02   -2.080707E-02
    1.928146E-02   -7.853981E-03
    1.685306E-02    4.153502E-03
    9.254568E-03    1.203868E-02
   -4.096777E-04    1.429692E-02
   -9.017104E-03    1.120874E-02
   -1.427182E-02    4.450992E-03
   -1.517008E-02   -3.606322E-03
