 Vespa-Simulation Mixed Metabolite Output
 This file was generated by Vespa-Simulation. You can learn about and download Vespa here:
https://github.com/vespa-mrs/vespa/tree/main/vespa

 
 Output Path/Filename = /home/stud/casperc/bhome/Project1(DeepFit)/DeepFit-data-generation/Initial_spectra_linewidth_10_TE30_1024p
 Output Loop Values = (1,1,1)  ( Loop 1 = 11, Loop 2 = 11, Loop3 Inactive )
 Output Comment
 ---------------------------------------------------------------------------
 
 
 Experiment Information
 ---------------------------------------------------------------------------
 --- Experiment 982623a4-1070-4538-bb82-a4cf0a440db0 ---
 Name: SyntheticDataSetDeepFitTE22
 Public: False
 Created: 2024-10-04T10:31:50
 Comment (abbr.): 
 PI: Casper Cappelen
 b0: 127.740000
 Peak Search PPM low/high: -10.000000 / 10.000000
 Blend tol. PPM/phase: 0.000150 / 50.000000
 Pulse seq.: 43be13ae-de9a-40a1-9a2d-c872d8bjs100 (PRESS Ideal)
 0 User static parameters: 
 28 Metabolites: 2-hydroxyglutarate, alanine, choline-methylene, choline-trimethyl, choline-truncated, creatine, ethanolamine, gaba, glucose-alpha, glucose-beta, glutamate, glutamine, glutathione-glutamate, glutathione-glycine-cysteine, glycine, GPC-gp, GPC-pcholine1, GPC-pcholine2, lactate, myo-inositol, n-acetylaspartate, NAAG-truncated, phosphocreatine, phosphorylcholine-notrimethyl, phosphorylcholine-trimethyl, phosphorylethanolamine, pyruvate, taurine
 28 Simulations: (not shown)
 
 Metabolite Formatting Information
 ---------------------------------------------------------------------------
 Name=2-hydroxyglutarate Abbr=2HG Scale=1.0 Shift=0.0 PPM Start=-7.81 PPM End=7.81
 Name=alanine Abbr=Ala Scale=1.0 Shift=0.0 PPM Start=-7.81 PPM End=7.81
 Name=choline-methylene Abbr=choline-methylene Scale=1.0 Shift=0.0 PPM Start=-7.81 PPM End=7.81
 Name=choline-trimethyl Abbr=choline-trimethyl Scale=1.0 Shift=0.0 PPM Start=-7.81 PPM End=7.81
 Name=choline-truncated Abbr=choline-truncated Scale=1.0 Shift=0.0 PPM Start=-7.81 PPM End=7.81
 Name=creatine Abbr=Cr Scale=1.0 Shift=0.0 PPM Start=-7.81 PPM End=7.81
 Name=ethanolamine Abbr=ETA Scale=1.0 Shift=0.0 PPM Start=-7.81 PPM End=7.81
 Name=gaba Abbr=GABA Scale=1.0 Shift=0.0 PPM Start=-7.81 PPM End=7.81
 Name=glutamate Abbr=Glu Scale=1.0 Shift=0.0 PPM Start=-7.81 PPM End=7.81
 Name=glutamine Abbr=Gln Scale=1.0 Shift=0.0 PPM Start=-7.81 PPM End=7.81
 Name=glutathione-glutamate Abbr=glutathione-glutamate Scale=1.0 Shift=0.0 PPM Start=-7.81 PPM End=7.81
 Name=glutathione-glycine-cysteine Abbr=GSH Scale=1.0 Shift=0.0 PPM Start=-7.81 PPM End=7.81
 Name=glycine Abbr=Gly Scale=1.0 Shift=0.0 PPM Start=-7.81 PPM End=7.81
 Name=GPC-gp Abbr=GPC-gp Scale=1.0 Shift=0.0 PPM Start=-7.81 PPM End=7.81
 Name=GPC-pcholine1 Abbr=GPC-pcholine1 Scale=1.0 Shift=0.0 PPM Start=-7.81 PPM End=7.81
 Name=GPC-pcholine2 Abbr=GPC-pcholine2 Scale=1.0 Shift=0.0 PPM Start=-7.81 PPM End=7.81
 Name=lactate Abbr=Lac Scale=1.0 Shift=0.0 PPM Start=-7.81 PPM End=7.81
 Name=myo-inositol Abbr=mI Scale=1.0 Shift=0.0 PPM Start=-7.81 PPM End=7.81
 Name=n-acetylaspartate Abbr=NAA Scale=1.0 Shift=0.0 PPM Start=-7.18 PPM End=7.81
 Name=NAAG-truncated Abbr=NAAG Scale=1.0 Shift=0.0 PPM Start=-7.81 PPM End=7.81
 Name=phosphocreatine Abbr=PCr Scale=1.0 Shift=0.0 PPM Start=-7.81 PPM End=7.81
 Name=phosphorylcholine-notrimethyl Abbr=phosphorylcholine-notrimethyl Scale=1.0 Shift=0.0 PPM Start=-7.81 PPM End=7.81
 Name=phosphorylcholine-trimethyl Abbr=phosphorylcholine-trimethyl Scale=1.0 Shift=0.0 PPM Start=-7.81 PPM End=7.81
 Name=phosphorylethanolamine Abbr=PE Scale=1.0 Shift=0.0 PPM Start=-7.81 PPM End=7.81
 Name=pyruvate Abbr=Pyr Scale=1.0 Shift=0.0 PPM Start=-7.51 PPM End=7.81
 Name=taurine Abbr=Tau Scale=1.0 Shift=0.0 PPM Start=7.81 PPM End=7.81
 Name=glucose-beta+glucose-alpha Abbr=Glc Scale=1.0 Shift=0.0 PPM Start=-7.81 PPM End=7.81
   Mixture of [metab*scale] = glucose-beta*1.000000 + glucose-alpha*1.000000
 
 ===========================================================================
 This LCModel format RAW file was created using the 
 Vespa-Simulation spectral simulation program using 
 the following settings and parameters 
 
 Sweep Width = 3500.0 Hz 
 Vector Size = 2048 points 
 Apodization = 15.0 Hz Lorentzian broadening
 B0 Field    = 127.74 MHz 
 Ref Singlet = False
  
 This data has been FFTd to be in the FREQUENCY domain
 
 $NMID ID='glutathione-glutamate'
 FMTDAT='(2E16.6)'
 VOLUME=1.0
 TRAMP=1.0
 $END
    2.652135E+00    1.065417E+01
    2.662346E+00    1.075274E+01
    2.672992E+00    1.085346E+01
    2.684104E+00    1.095641E+01
    2.695704E+00    1.106167E+01
    2.707808E+00    1.116932E+01
    2.720437E+00    1.127948E+01
    2.733625E+00    1.139226E+01
    2.747427E+00    1.150777E+01
    2.761899E+00    1.162613E+01
    2.777080E+00    1.174743E+01
    2.792995E+00    1.187181E+01
    2.809688E+00    1.199940E+01
    2.827221E+00    1.213037E+01
    2.845666E+00    1.226488E+01
    2.865086E+00    1.240308E+01
    2.885541E+00    1.254514E+01
    2.907104E+00    1.269127E+01
    2.929868E+00    1.284168E+01
    2.953930E+00    1.299657E+01
    2.979383E+00    1.315618E+01
    3.006322E+00    1.332077E+01
    3.034870E+00    1.349062E+01
    3.065175E+00    1.366604E+01
    3.097395E+00    1.384733E+01
    3.131678E+00    1.403484E+01
    3.168182E+00    1.422896E+01
    3.207098E+00    1.443012E+01
    3.248667E+00    1.463883E+01
    3.293155E+00    1.485559E+01
    3.340861E+00    1.508102E+01
    3.392164E+00    1.531580E+01
    3.447588E+00    1.556071E+01
    3.507848E+00    1.581653E+01
    3.573835E+00    1.608389E+01
    3.646403E+00    1.636321E+01
    3.726146E+00    1.665489E+01
    3.813511E+00    1.695958E+01
    3.908965E+00    1.727820E+01
    4.012933E+00    1.761200E+01
    4.126100E+00    1.796290E+01
    4.249908E+00    1.833320E+01
    4.386592E+00    1.872506E+01
    4.538655E+00    1.914028E+01
    4.708562E+00    1.958080E+01
    4.899288E+00    2.004917E+01
    5.114899E+00    2.054806E+01
    5.360167E+00    2.107970E+01
    5.640057E+00    2.164635E+01
    5.960192E+00    2.225103E+01
    6.327749E+00    2.289751E+01
    6.752080E+00    2.358995E+01
    7.245205E+00    2.433256E+01
    7.822467E+00    2.512923E+01
    8.503466E+00    2.598301E+01
    9.313306E+00    2.689515E+01
    1.028419E+01    2.786346E+01
    1.145731E+01    2.887935E+01
    1.288473E+01    2.992288E+01
    1.463008E+01    3.095427E+01
    1.676541E+01    3.190050E+01
    1.935758E+01    3.263643E+01
    2.243224E+01    3.296663E+01
    2.590250E+01    3.263492E+01
    2.948672E+01    3.142400E+01
    3.276082E+01    2.937809E+01
    3.553333E+01    2.689399E+01
    3.816403E+01    2.420693E+01
    4.094404E+01    2.077854E+01
    4.313338E+01    1.594345E+01
    4.349632E+01    1.025263E+01
    4.196630E+01    5.198872E+00
    3.971924E+01    1.421745E+00
    3.750471E+01   -1.700811E+00
    3.500286E+01   -4.696200E+00
    3.181258E+01   -7.262334E+00
    2.815200E+01   -8.910960E+00
    2.451960E+01   -9.556287E+00
    2.126047E+01   -9.425750E+00
    1.849509E+01   -8.804185E+00
    1.620995E+01   -7.913599E+00
    1.433977E+01   -6.898260E+00
    1.281011E+01   -5.843711E+00
    1.155389E+01   -4.797668E+00
    1.051573E+01   -3.785076E+00
    9.651554E+00   -2.817621E+00
    8.926879E+00   -1.899476E+00
    8.314785E+00   -1.030692E+00
    7.794197E+00   -2.091323E-01
    7.348510E+00    5.684506E-01
    6.964567E+00    1.305786E+00
    6.631842E+00    2.006723E+00
    6.341814E+00    2.675081E+00
    6.087524E+00    3.314646E+00
    5.863355E+00    3.929246E+00
    5.665049E+00    4.522755E+00
    5.489879E+00    5.098797E+00
    5.336473E+00    5.659961E+00
    5.203635E+00    6.207306E+00
    5.089206E+00    6.741405E+00
    4.990808E+00    7.263658E+00
    4.907017E+00    7.775656E+00
    4.836663E+00    8.278129E+00
    4.777823E+00    8.771653E+00
    4.728336E+00    9.257608E+00
    4.686640E+00    9.737965E+00
    4.651847E+00    1.021470E+01
    4.623473E+00    1.068954E+01
    4.601235E+00    1.116403E+01
    4.584973E+00    1.163949E+01
    4.574574E+00    1.211713E+01
    4.569925E+00    1.259810E+01
    4.570943E+00    1.308353E+01
    4.577614E+00    1.357456E+01
    4.589970E+00    1.407230E+01
    4.608059E+00    1.457790E+01
    4.631965E+00    1.509252E+01
    4.661843E+00    1.561741E+01
    4.697919E+00    1.615385E+01
    4.740464E+00    1.670315E+01
    4.789816E+00    1.726675E+01
    4.846415E+00    1.784617E+01
    4.910833E+00    1.844301E+01
    4.983785E+00    1.905893E+01
    5.066119E+00    1.969559E+01
    5.158713E+00    2.035461E+01
    5.262259E+00    2.103763E+01
    5.377194E+00    2.174676E+01
    5.504119E+00    2.248486E+01
    5.644269E+00    2.325535E+01
    5.799487E+00    2.406182E+01
    5.972044E+00    2.490803E+01
    6.164647E+00    2.579807E+01
    6.380608E+00    2.673634E+01
    6.623906E+00    2.772747E+01
    6.898965E+00    2.877631E+01
    7.210643E+00    2.988854E+01
    7.565056E+00    3.107108E+01
    7.970424E+00    3.233155E+01
    8.436962E+00    3.367761E+01
    8.976612E+00    3.511726E+01
    9.603858E+00    3.665940E+01
    1.033704E+01    3.831335E+01
    1.119908E+01    4.008760E+01
    1.221718E+01    4.198841E+01
    1.342104E+01    4.401953E+01
    1.484101E+01    4.618594E+01
    1.651362E+01    4.850293E+01
    1.850333E+01    5.099689E+01
    2.092162E+01    5.367644E+01
    2.390747E+01    5.649535E+01
    2.759006E+01    5.935530E+01
    3.209369E+01    6.213220E+01
    3.757997E+01    6.464428E+01
    4.420667E+01    6.653814E+01
    5.191598E+01    6.725891E+01
    6.023582E+01    6.631022E+01
    6.848883E+01    6.366970E+01
    7.641279E+01    5.971525E+01
    8.428307E+01    5.442022E+01
    9.192686E+01    4.692776E+01
    9.780602E+01    3.666228E+01
    1.000484E+02    2.490974E+01
    9.867453E+01    1.420118E+01
    9.568530E+01    5.720309E+00
    9.252982E+01   -1.561183E+00
    8.862318E+01   -8.763045E+00
    8.290009E+01   -1.527928E+01
