 Vespa-Simulation Mixed Metabolite Output
 This file was generated by Vespa-Simulation. You can learn about and download Vespa here:
https://github.com/vespa-mrs/vespa/tree/main/vespa

 
 Output Path/Filename = /home/stud/casperc/bhome/Project1(DeepFit)/DeepFit-data-generation/Initial_spectra_linewidth_10_TE30_1024p
 Output Loop Values = (1,1,1)  ( Loop 1 = 11, Loop 2 = 11, Loop3 Inactive )
 Output Comment
 ---------------------------------------------------------------------------
 
 
 Experiment Information
 ---------------------------------------------------------------------------
 --- Experiment 982623a4-1070-4538-bb82-a4cf0a440db0 ---
 Name: SyntheticDataSetDeepFitTE22
 Public: False
 Created: 2024-10-04T10:31:50
 Comment (abbr.): 
 PI: Casper Cappelen
 b0: 127.740000
 Peak Search PPM low/high: -10.000000 / 10.000000
 Blend tol. PPM/phase: 0.000150 / 50.000000
 Pulse seq.: 43be13ae-de9a-40a1-9a2d-c872d8bjs100 (PRESS Ideal)
 0 User static parameters: 
 28 Metabolites: 2-hydroxyglutarate, alanine, choline-methylene, choline-trimethyl, choline-truncated, creatine, ethanolamine, gaba, glucose-alpha, glucose-beta, glutamate, glutamine, glutathione-glutamate, glutathione-glycine-cysteine, glycine, GPC-gp, GPC-pcholine1, GPC-pcholine2, lactate, myo-inositol, n-acetylaspartate, NAAG-truncated, phosphocreatine, phosphorylcholine-notrimethyl, phosphorylcholine-trimethyl, phosphorylethanolamine, pyruvate, taurine
 28 Simulations: (not shown)
 
 Metabolite Formatting Information
 ---------------------------------------------------------------------------
 Name=2-hydroxyglutarate Abbr=2HG Scale=1.0 Shift=0.0 PPM Start=-7.81 PPM End=7.81
 Name=alanine Abbr=Ala Scale=1.0 Shift=0.0 PPM Start=-7.81 PPM End=7.81
 Name=choline-methylene Abbr=choline-methylene Scale=1.0 Shift=0.0 PPM Start=-7.81 PPM End=7.81
 Name=choline-trimethyl Abbr=choline-trimethyl Scale=1.0 Shift=0.0 PPM Start=-7.81 PPM End=7.81
 Name=choline-truncated Abbr=choline-truncated Scale=1.0 Shift=0.0 PPM Start=-7.81 PPM End=7.81
 Name=creatine Abbr=Cr Scale=1.0 Shift=0.0 PPM Start=-7.81 PPM End=7.81
 Name=ethanolamine Abbr=ETA Scale=1.0 Shift=0.0 PPM Start=-7.81 PPM End=7.81
 Name=gaba Abbr=GABA Scale=1.0 Shift=0.0 PPM Start=-7.81 PPM End=7.81
 Name=glutamate Abbr=Glu Scale=1.0 Shift=0.0 PPM Start=-7.81 PPM End=7.81
 Name=glutamine Abbr=Gln Scale=1.0 Shift=0.0 PPM Start=-7.81 PPM End=7.81
 Name=glutathione-glutamate Abbr=glutathione-glutamate Scale=1.0 Shift=0.0 PPM Start=-7.81 PPM End=7.81
 Name=glutathione-glycine-cysteine Abbr=GSH Scale=1.0 Shift=0.0 PPM Start=-7.81 PPM End=7.81
 Name=glycine Abbr=Gly Scale=1.0 Shift=0.0 PPM Start=-7.81 PPM End=7.81
 Name=GPC-gp Abbr=GPC-gp Scale=1.0 Shift=0.0 PPM Start=-7.81 PPM End=7.81
 Name=GPC-pcholine1 Abbr=GPC-pcholine1 Scale=1.0 Shift=0.0 PPM Start=-7.81 PPM End=7.81
 Name=GPC-pcholine2 Abbr=GPC-pcholine2 Scale=1.0 Shift=0.0 PPM Start=-7.81 PPM End=7.81
 Name=lactate Abbr=Lac Scale=1.0 Shift=0.0 PPM Start=-7.81 PPM End=7.81
 Name=myo-inositol Abbr=mI Scale=1.0 Shift=0.0 PPM Start=-7.81 PPM End=7.81
 Name=n-acetylaspartate Abbr=NAA Scale=1.0 Shift=0.0 PPM Start=-7.18 PPM End=7.81
 Name=NAAG-truncated Abbr=NAAG Scale=1.0 Shift=0.0 PPM Start=-7.81 PPM End=7.81
 Name=phosphocreatine Abbr=PCr Scale=1.0 Shift=0.0 PPM Start=-7.81 PPM End=7.81
 Name=phosphorylcholine-notrimethyl Abbr=phosphorylcholine-notrimethyl Scale=1.0 Shift=0.0 PPM Start=-7.81 PPM End=7.81
 Name=phosphorylcholine-trimethyl Abbr=phosphorylcholine-trimethyl Scale=1.0 Shift=0.0 PPM Start=-7.81 PPM End=7.81
 Name=phosphorylethanolamine Abbr=PE Scale=1.0 Shift=0.0 PPM Start=-7.81 PPM End=7.81
 Name=pyruvate Abbr=Pyr Scale=1.0 Shift=0.0 PPM Start=-7.51 PPM End=7.81
 Name=taurine Abbr=Tau Scale=1.0 Shift=0.0 PPM Start=7.81 PPM End=7.81
 Name=glucose-beta+glucose-alpha Abbr=Glc Scale=1.0 Shift=0.0 PPM Start=-7.81 PPM End=7.81
   Mixture of [metab*scale] = glucose-beta*1.000000 + glucose-alpha*1.000000
 
 ===========================================================================
 This LCModel format RAW file was created using the 
 Vespa-Simulation spectral simulation program using 
 the following settings and parameters 
 
 Sweep Width = 3500.0 Hz 
 Vector Size = 2048 points 
 Apodization = 15.0 Hz Lorentzian broadening
 B0 Field    = 127.74 MHz 
 Ref Singlet = False
  
 $NMID ID='Gly'
 FMTDAT='(2E16.6)'
 VOLUME=1.0
 TRAMP=1.0
 $END
    2.000000E+00   -1.387779E-17
    1.904797E+00    5.152412E-01
    1.681389E+00    9.814300E-01
    1.348516E+00    1.367873E+00
    9.319325E-01    1.650166E+00
    4.624546E-01    1.811701E+00
   -2.629031E-02    1.844599E+00
   -5.002480E-01    1.750020E+00
   -9.272744E-01    1.537843E+00
   -1.279317E+00    1.225753E+00
   -1.534197E+00    8.378292E-01
   -1.677010E+00    4.027042E-01
   -1.700927E+00   -4.849508E-02
   -1.607466E+00   -4.843827E-01
   -1.406160E+00   -8.754437E-01
   -1.113698E+00   -1.196023E+00
   -7.525621E-01   -1.426003E+00
   -3.493692E-01   -1.551999E+00
    6.709028E-02   -1.568126E+00
    4.678721E-01   -1.476199E+00
    8.259018E-01   -1.285395E+00
    1.117733E+00   -1.011438E+00
    1.325096E+00   -6.753389E-01
    1.435999E+00   -3.018258E-01
    1.445400E+00    8.248657E-02
    1.355346E+00    4.509268E-01
    1.174661E+00    7.786287E-01
    9.181586E-01    1.044178E+00
    6.054427E-01    1.231014E+00
    2.594936E-01    1.328390E+00
   -9.507363E-02    1.332008E+00
   -4.337092E-01    1.244106E+00
   -7.335670E-01    1.073156E+00
   -9.751117E-01    8.330940E-01
   -1.143321E+00    5.422207E-01
   -1.228583E+00    2.218723E-01
   -1.227259E+00   -1.052060E-01
   -1.141738E+00   -4.163606E-01
   -9.801299E-01   -6.906725E-01
   -7.555364E-01   -9.103023E-01
   -4.850637E-01   -1.061610E+00
   -1.884733E-01   -1.136040E+00
    1.131608E-01   -1.130518E+00
    3.990145E-01   -1.047553E+00
    6.498982E-01   -8.948888E-01
    8.495011E-01   -6.848672E-01
    9.854978E-01   -4.334217E-01
    1.050246E+00   -1.588983E-01
    1.041189E+00    1.192261E-01
    9.609089E-01    3.817891E-01
    8.168141E-01    6.111619E-01
    6.204880E-01    7.924954E-01
    3.867824E-01    9.146245E-01
    1.327489E-01    9.707296E-01
   -1.236461E-01    9.587209E-01
   -3.647527E-01    8.812280E-01
   -5.744176E-01    7.453085E-01
   -7.390728E-01    5.618603E-01
   -8.486410E-01    3.447086E-01
   -8.970493E-01    1.096664E-01
   -8.826027E-01   -1.266388E-01
   -8.079624E-01   -3.479929E-01
   -6.798483E-01   -5.395803E-01
   -5.084900E-01   -6.890307E-01
   -3.067712E-01   -7.872314E-01
   -8.935567E-02   -8.287893E-01
    1.283986E-01   -8.123597E-01
    3.315723E-01   -7.406097E-01
    5.065896E-01   -6.199322E-01
    6.421857E-01   -4.599102E-01
    7.300949E-01   -2.725887E-01
    7.655663E-01   -7.152024E-02
    7.475484E-01    1.291150E-01
    6.787062E-01    3.155425E-01
    5.651052E-01    4.753748E-01
    4.157349E-01    5.983319E-01
    2.418130E-01    6.769487E-01
    5.590155E-02    7.070213E-01
   -1.289075E-01    6.877666E-01
   -2.999447E-01    6.218234E-01
   -4.458650E-01    5.149487E-01
   -5.573051E-01    3.755685E-01
   -6.275321E-01    2.141132E-01
   -6.528201E-01    4.226588E-02
   -6.326326E-01   -1.279303E-01
   -5.695589E-01   -2.848238E-01
   -4.690770E-01   -4.179887E-01
   -3.390621E-01   -5.189381E-01
   -1.892291E-01   -5.815866E-01
   -3.040204E-02   -6.026511E-01
    1.263045E-01   -5.817953E-01
    2.701783E-01   -5.215605E-01
    3.916757E-01   -4.271361E-01
    4.830724E-01   -3.058966E-01
    5.388839E-01   -1.668823E-01
    5.562244E-01   -2.011939E-02
    5.349296E-01    1.241369E-01
    4.774841E-01    2.560399E-01
    3.887915E-01    3.668646E-01
    2.757795E-01    4.495578E-01
    1.468332E-01    4.992057E-01
    1.123447E-02    5.132700E-01
   -1.215217E-01    4.917338E-01
   -2.424209E-01    4.370184E-01
   -3.434687E-01    3.537606E-01
   -4.182513E-01    2.484429E-01
   -4.623469E-01    1.288633E-01
   -4.735363E-01    3.615848E-03
   -4.519286E-01   -1.185421E-01
   -3.998757E-01   -2.293282E-01
   -3.217591E-01   -3.214303E-01
   -2.236332E-01   -3.890231E-01
   -1.127646E-01   -4.281184E-01
    2.878905E-03   -4.367899E-01
    1.152708E-01   -4.152557E-01
    2.167647E-01   -3.657912E-01
    3.006837E-01   -2.925339E-01
    3.617349E-01   -2.011440E-01
    3.963353E-01   -9.837613E-02
    4.028129E-01    8.413652E-03
    3.814751E-01    1.117718E-01
    3.345202E-01    2.047294E-01
    2.658521E-01    2.811651E-01
    1.807608E-01    3.362714E-01
    8.552337E-02    3.668328E-01
   -1.305391E-02    3.714035E-01
   -1.081006E-01    3.503652E-01
   -1.932183E-01    3.058371E-01
   -2.628124E-01    2.415000E-01
   -3.125187E-01    1.622962E-01
   -3.394537E-01    7.405703E-02
   -3.423737E-01   -1.692082E-02
   -3.217210E-01   -1.043058E-01
   -2.795340E-01   -1.822246E-01
   -2.192813E-01   -2.455657E-01
   -1.455784E-01   -2.903688E-01
   -6.384146E-02   -3.140512E-01
    2.010575E-02   -3.155487E-01
    1.004426E-01   -2.953478E-01
    1.717395E-01   -2.554192E-01
    2.293670E-01   -1.990156E-01
    2.697202E-01   -1.304506E-01
    2.904883E-01   -5.475349E-02
    2.907661E-01    2.269065E-02
    2.710790E-01    9.651976E-02
    2.333158E-01    1.617521E-01
    1.805375E-01    2.141607E-01
    1.167697E-01    2.504773E-01
    4.668134E-02    2.686368E-01
   -2.474899E-02    2.678752E-01
   -9.258279E-02    2.487475E-01
   -1.522597E-01    2.130544E-01
   -1.998930E-01    1.636950E-01
   -2.325498E-01    1.044047E-01
   -2.483771E-01    3.952360E-02
   -2.467359E-01   -2.634655E-02
   -2.282029E-01   -8.865825E-02
   -1.944989E-01   -1.432291E-01
   -1.483487E-01   -1.865126E-01
   -9.323612E-02   -2.158526E-01
   -3.318827E-02   -2.295975E-01
    2.754217E-02   -2.272181E-01
    8.476865E-02   -2.093062E-01
    1.346563E-01   -1.775038E-01
    1.739761E-01   -1.343629E-01
    2.003061E-01   -8.315476E-02
    2.121939E-01   -2.759202E-02
    2.092012E-01    2.838836E-02
    1.919289E-01    8.093290E-02
    1.619420E-01    1.265263E-01
