 Vespa-Simulation Mixed Metabolite Output
 This file was generated by Vespa-Simulation. You can learn about and download Vespa here:
https://github.com/vespa-mrs/vespa/tree/main/vespa

 
 Output Path/Filename = /home/stud/casperc/bhome/Project1(DeepFit)/DeepFit-data-generation/Initial_spectra_linewidth_10_TE30_1024p
 Output Loop Values = (1,1,1)  ( Loop 1 = 11, Loop 2 = 11, Loop3 Inactive )
 Output Comment
 ---------------------------------------------------------------------------
 
 
 Experiment Information
 ---------------------------------------------------------------------------
 --- Experiment 982623a4-1070-4538-bb82-a4cf0a440db0 ---
 Name: SyntheticDataSetDeepFitTE22
 Public: False
 Created: 2024-10-04T10:31:50
 Comment (abbr.): 
 PI: Casper Cappelen
 b0: 127.740000
 Peak Search PPM low/high: -10.000000 / 10.000000
 Blend tol. PPM/phase: 0.000150 / 50.000000
 Pulse seq.: 43be13ae-de9a-40a1-9a2d-c872d8bjs100 (PRESS Ideal)
 0 User static parameters: 
 28 Metabolites: 2-hydroxyglutarate, alanine, choline-methylene, choline-trimethyl, choline-truncated, creatine, ethanolamine, gaba, glucose-alpha, glucose-beta, glutamate, glutamine, glutathione-glutamate, glutathione-glycine-cysteine, glycine, GPC-gp, GPC-pcholine1, GPC-pcholine2, lactate, myo-inositol, n-acetylaspartate, NAAG-truncated, phosphocreatine, phosphorylcholine-notrimethyl, phosphorylcholine-trimethyl, phosphorylethanolamine, pyruvate, taurine
 28 Simulations: (not shown)
 
 Metabolite Formatting Information
 ---------------------------------------------------------------------------
 Name=2-hydroxyglutarate Abbr=2HG Scale=1.0 Shift=0.0 PPM Start=-7.81 PPM End=7.81
 Name=alanine Abbr=Ala Scale=1.0 Shift=0.0 PPM Start=-7.81 PPM End=7.81
 Name=choline-methylene Abbr=choline-methylene Scale=1.0 Shift=0.0 PPM Start=-7.81 PPM End=7.81
 Name=choline-trimethyl Abbr=choline-trimethyl Scale=1.0 Shift=0.0 PPM Start=-7.81 PPM End=7.81
 Name=choline-truncated Abbr=choline-truncated Scale=1.0 Shift=0.0 PPM Start=-7.81 PPM End=7.81
 Name=creatine Abbr=Cr Scale=1.0 Shift=0.0 PPM Start=-7.81 PPM End=7.81
 Name=ethanolamine Abbr=ETA Scale=1.0 Shift=0.0 PPM Start=-7.81 PPM End=7.81
 Name=gaba Abbr=GABA Scale=1.0 Shift=0.0 PPM Start=-7.81 PPM End=7.81
 Name=glutamate Abbr=Glu Scale=1.0 Shift=0.0 PPM Start=-7.81 PPM End=7.81
 Name=glutamine Abbr=Gln Scale=1.0 Shift=0.0 PPM Start=-7.81 PPM End=7.81
 Name=glutathione-glutamate Abbr=glutathione-glutamate Scale=1.0 Shift=0.0 PPM Start=-7.81 PPM End=7.81
 Name=glutathione-glycine-cysteine Abbr=GSH Scale=1.0 Shift=0.0 PPM Start=-7.81 PPM End=7.81
 Name=glycine Abbr=Gly Scale=1.0 Shift=0.0 PPM Start=-7.81 PPM End=7.81
 Name=GPC-gp Abbr=GPC-gp Scale=1.0 Shift=0.0 PPM Start=-7.81 PPM End=7.81
 Name=GPC-pcholine1 Abbr=GPC-pcholine1 Scale=1.0 Shift=0.0 PPM Start=-7.81 PPM End=7.81
 Name=GPC-pcholine2 Abbr=GPC-pcholine2 Scale=1.0 Shift=0.0 PPM Start=-7.81 PPM End=7.81
 Name=lactate Abbr=Lac Scale=1.0 Shift=0.0 PPM Start=-7.81 PPM End=7.81
 Name=myo-inositol Abbr=mI Scale=1.0 Shift=0.0 PPM Start=-7.81 PPM End=7.81
 Name=n-acetylaspartate Abbr=NAA Scale=1.0 Shift=0.0 PPM Start=-7.18 PPM End=7.81
 Name=NAAG-truncated Abbr=NAAG Scale=1.0 Shift=0.0 PPM Start=-7.81 PPM End=7.81
 Name=phosphocreatine Abbr=PCr Scale=1.0 Shift=0.0 PPM Start=-7.81 PPM End=7.81
 Name=phosphorylcholine-notrimethyl Abbr=phosphorylcholine-notrimethyl Scale=1.0 Shift=0.0 PPM Start=-7.81 PPM End=7.81
 Name=phosphorylcholine-trimethyl Abbr=phosphorylcholine-trimethyl Scale=1.0 Shift=0.0 PPM Start=-7.81 PPM End=7.81
 Name=phosphorylethanolamine Abbr=PE Scale=1.0 Shift=0.0 PPM Start=-7.81 PPM End=7.81
 Name=pyruvate Abbr=Pyr Scale=1.0 Shift=0.0 PPM Start=-7.51 PPM End=7.81
 Name=taurine Abbr=Tau Scale=1.0 Shift=0.0 PPM Start=7.81 PPM End=7.81
 Name=glucose-beta+glucose-alpha Abbr=Glc Scale=1.0 Shift=0.0 PPM Start=-7.81 PPM End=7.81
   Mixture of [metab*scale] = glucose-beta*1.000000 + glucose-alpha*1.000000
 
 ===========================================================================
 This LCModel format RAW file was created using the 
 Vespa-Simulation spectral simulation program using 
 the following settings and parameters 
 
 Sweep Width = 3500.0 Hz 
 Vector Size = 2048 points 
 Apodization = 15.0 Hz Lorentzian broadening
 B0 Field    = 127.74 MHz 
 Ref Singlet = False
  
 This data has been FFTd to be in the FREQUENCY domain
 
 $NMID ID='Gly'
 FMTDAT='(2E16.6)'
 VOLUME=1.0
 TRAMP=1.0
 $END
    1.387098E+00    7.507073E+00
    1.396178E+00    7.595835E+00
    1.405573E+00    7.686685E+00
    1.415315E+00    7.779698E+00
    1.425424E+00    7.874934E+00
    1.435891E+00    7.972471E+00
    1.446732E+00    8.072424E+00
    1.457999E+00    8.174890E+00
    1.469719E+00    8.279930E+00
    1.481884E+00    8.387641E+00
    1.494520E+00    8.498153E+00
    1.507673E+00    8.611574E+00
    1.521371E+00    8.727999E+00
    1.535624E+00    8.847548E+00
    1.550458E+00    8.970367E+00
    1.565920E+00    9.096599E+00
    1.582053E+00    9.226376E+00
    1.598891E+00    9.359844E+00
    1.616466E+00    9.497164E+00
    1.634825E+00    9.638514E+00
    1.654021E+00    9.784072E+00
    1.674105E+00    9.934025E+00
    1.695129E+00    1.008857E+01
    1.717150E+00    1.024793E+01
    1.740235E+00    1.041233E+01
    1.764456E+00    1.058202E+01
    1.789890E+00    1.075725E+01
    1.816612E+00    1.093829E+01
    1.844713E+00    1.112544E+01
    1.874295E+00    1.131903E+01
    1.905467E+00    1.151937E+01
    1.938341E+00    1.172683E+01
    1.973037E+00    1.194179E+01
    2.009695E+00    1.216466E+01
    2.048468E+00    1.239589E+01
    2.089520E+00    1.263594E+01
    2.133026E+00    1.288534E+01
    2.179182E+00    1.314463E+01
    2.228212E+00    1.341442E+01
    2.280361E+00    1.369536E+01
    2.335900E+00    1.398813E+01
    2.395126E+00    1.429351E+01
    2.458372E+00    1.461231E+01
    2.526010E+00    1.494543E+01
    2.598455E+00    1.529385E+01
    2.676170E+00    1.565863E+01
    2.759679E+00    1.604095E+01
    2.849573E+00    1.644208E+01
    2.946520E+00    1.686343E+01
    3.051269E+00    1.730652E+01
    3.164669E+00    1.777308E+01
    3.287693E+00    1.826497E+01
    3.421456E+00    1.878430E+01
    3.567240E+00    1.933338E+01
    3.726520E+00    1.991479E+01
    3.901005E+00    2.053140E+01
    4.092682E+00    2.118644E+01
    4.303871E+00    2.188351E+01
    4.537291E+00    2.262668E+01
    4.796141E+00    2.342052E+01
    5.084211E+00    2.427022E+01
    5.406016E+00    2.518165E+01
    5.766971E+00    2.616154E+01
    6.173613E+00    2.721751E+01
    6.633884E+00    2.835833E+01
    7.157500E+00    2.959404E+01
    7.756432E+00    3.093616E+01
    8.445556E+00    3.239800E+01
    9.243521E+00    3.399485E+01
    1.017393E+01    3.574434E+01
    1.126694E+01    3.766670E+01
    1.256155E+01    3.978491E+01
    1.410865E+01    4.212481E+01
    1.597548E+01    4.471461E+01
    1.825191E+01    4.758367E+01
    2.105940E+01    5.075940E+01
    2.456382E+01    5.426083E+01
    2.899344E+01    5.808523E+01
    3.466305E+01    6.218172E+01
    4.200290E+01    6.639948E+01
    5.158230E+01    7.038901E+01
    6.409172E+01    7.342300E+01
    8.018226E+01    7.410789E+01
    9.993893E+01    7.005585E+01
    1.217084E+02    5.796676E+01
    1.406521E+02    3.524352E+01
    1.494577E+02    3.638588E+00
    1.436480E+02   -2.900721E+01
    1.262559E+02   -5.401082E+01
    1.045616E+02   -6.825279E+01
    8.414239E+01   -7.373902E+01
    6.723378E+01   -7.383327E+01
    5.400122E+01   -7.115752E+01
    4.385244E+01   -6.729452E+01
    3.608378E+01   -6.308684E+01
    3.009569E+01   -5.894666E+01
    2.542939E+01   -5.505704E+01
    2.174776E+01   -5.148479E+01
    1.880616E+01   -4.824012E+01
    1.642703E+01   -4.530726E+01
    1.448058E+01   -4.265986E+01
    1.287103E+01   -4.026864E+01
    1.152688E+01   -3.810500E+01
    1.039413E+01   -3.614254E+01
    9.431565E+00   -3.435764E+01
    8.607320E+00   -3.272952E+01
    7.896527E+00   -3.124001E+01
    7.279572E+00   -2.987334E+01
    6.740846E+00   -2.861580E+01
    6.267819E+00   -2.745547E+01
    5.850346E+00   -2.638202E+01
    5.480148E+00   -2.538644E+01
    5.150415E+00   -2.446086E+01
    4.855510E+00   -2.359839E+01
    4.590731E+00   -2.279300E+01
    4.352136E+00   -2.203935E+01
    4.136404E+00   -2.133274E+01
    3.940721E+00   -2.066899E+01
    3.762698E+00   -2.004439E+01
    3.600286E+00   -1.945566E+01
    3.451723E+00   -1.889984E+01
    3.315487E+00   -1.837429E+01
    3.190259E+00   -1.787666E+01
    3.074890E+00   -1.740481E+01
    2.968377E+00   -1.695681E+01
    2.869834E+00   -1.653094E+01
    2.778484E+00   -1.612560E+01
    2.693647E+00   -1.573936E+01
    2.614723E+00   -1.537090E+01
    2.541181E+00   -1.501906E+01
    2.472541E+00   -1.468273E+01
    2.408378E+00   -1.436092E+01
    2.348314E+00   -1.405273E+01
    2.292009E+00   -1.375730E+01
    2.239155E+00   -1.347388E+01
    2.189475E+00   -1.320174E+01
    2.142724E+00   -1.294023E+01
    2.098680E+00   -1.268874E+01
    2.057138E+00   -1.244672E+01
    2.017907E+00   -1.221364E+01
    1.980816E+00   -1.198903E+01
    1.945714E+00   -1.177242E+01
    1.912465E+00   -1.156339E+01
    1.880939E+00   -1.136157E+01
    1.851012E+00   -1.116658E+01
    1.822582E+00   -1.097808E+01
    1.795555E+00   -1.079575E+01
    1.769843E+00   -1.061929E+01
    1.745358E+00   -1.044844E+01
    1.722023E+00   -1.028292E+01
    1.699767E+00   -1.012249E+01
    1.678530E+00   -9.966913E+00
    1.658250E+00   -9.815985E+00
    1.638865E+00   -9.669498E+00
    1.620323E+00   -9.527254E+00
    1.602581E+00   -9.389070E+00
    1.585596E+00   -9.254780E+00
    1.569321E+00   -9.124226E+00
    1.553709E+00   -8.997251E+00
    1.538728E+00   -8.873698E+00
    1.524359E+00   -8.753432E+00
    1.510570E+00   -8.636340E+00
    1.497313E+00   -8.522302E+00
    1.484554E+00   -8.411184E+00
    1.472286E+00   -8.302864E+00
    1.460494E+00   -8.197260E+00
    1.449128E+00   -8.094278E+00
    1.438160E+00   -7.993793E+00
