 Vespa-Simulation Mixed Metabolite Output
 This file was generated by Vespa-Simulation. You can learn about and download Vespa here:
https://github.com/vespa-mrs/vespa/tree/main/vespa

 
 Output Path/Filename = /home/stud/casperc/bhome/Project1(DeepFit)/DeepFit-data-generation/Initial_spectra_linewidth_10_TE30_1024p
 Output Loop Values = (1,1,1)  ( Loop 1 = 11, Loop 2 = 11, Loop3 Inactive )
 Output Comment
 ---------------------------------------------------------------------------
 
 
 Experiment Information
 ---------------------------------------------------------------------------
 --- Experiment 982623a4-1070-4538-bb82-a4cf0a440db0 ---
 Name: SyntheticDataSetDeepFitTE22
 Public: False
 Created: 2024-10-04T10:31:50
 Comment (abbr.): 
 PI: Casper Cappelen
 b0: 127.740000
 Peak Search PPM low/high: -10.000000 / 10.000000
 Blend tol. PPM/phase: 0.000150 / 50.000000
 Pulse seq.: 43be13ae-de9a-40a1-9a2d-c872d8bjs100 (PRESS Ideal)
 0 User static parameters: 
 28 Metabolites: 2-hydroxyglutarate, alanine, choline-methylene, choline-trimethyl, choline-truncated, creatine, ethanolamine, gaba, glucose-alpha, glucose-beta, glutamate, glutamine, glutathione-glutamate, glutathione-glycine-cysteine, glycine, GPC-gp, GPC-pcholine1, GPC-pcholine2, lactate, myo-inositol, n-acetylaspartate, NAAG-truncated, phosphocreatine, phosphorylcholine-notrimethyl, phosphorylcholine-trimethyl, phosphorylethanolamine, pyruvate, taurine
 28 Simulations: (not shown)
 
 Metabolite Formatting Information
 ---------------------------------------------------------------------------
 Name=2-hydroxyglutarate Abbr=2HG Scale=1.0 Shift=0.0 PPM Start=-7.81 PPM End=7.81
 Name=alanine Abbr=Ala Scale=1.0 Shift=0.0 PPM Start=-7.81 PPM End=7.81
 Name=choline-methylene Abbr=choline-methylene Scale=1.0 Shift=0.0 PPM Start=-7.81 PPM End=7.81
 Name=choline-trimethyl Abbr=choline-trimethyl Scale=1.0 Shift=0.0 PPM Start=-7.81 PPM End=7.81
 Name=choline-truncated Abbr=choline-truncated Scale=1.0 Shift=0.0 PPM Start=-7.81 PPM End=7.81
 Name=creatine Abbr=Cr Scale=1.0 Shift=0.0 PPM Start=-7.81 PPM End=7.81
 Name=ethanolamine Abbr=ETA Scale=1.0 Shift=0.0 PPM Start=-7.81 PPM End=7.81
 Name=gaba Abbr=GABA Scale=1.0 Shift=0.0 PPM Start=-7.81 PPM End=7.81
 Name=glutamate Abbr=Glu Scale=1.0 Shift=0.0 PPM Start=-7.81 PPM End=7.81
 Name=glutamine Abbr=Gln Scale=1.0 Shift=0.0 PPM Start=-7.81 PPM End=7.81
 Name=glutathione-glutamate Abbr=glutathione-glutamate Scale=1.0 Shift=0.0 PPM Start=-7.81 PPM End=7.81
 Name=glutathione-glycine-cysteine Abbr=GSH Scale=1.0 Shift=0.0 PPM Start=-7.81 PPM End=7.81
 Name=glycine Abbr=Gly Scale=1.0 Shift=0.0 PPM Start=-7.81 PPM End=7.81
 Name=GPC-gp Abbr=GPC-gp Scale=1.0 Shift=0.0 PPM Start=-7.81 PPM End=7.81
 Name=GPC-pcholine1 Abbr=GPC-pcholine1 Scale=1.0 Shift=0.0 PPM Start=-7.81 PPM End=7.81
 Name=GPC-pcholine2 Abbr=GPC-pcholine2 Scale=1.0 Shift=0.0 PPM Start=-7.81 PPM End=7.81
 Name=lactate Abbr=Lac Scale=1.0 Shift=0.0 PPM Start=-7.81 PPM End=7.81
 Name=myo-inositol Abbr=mI Scale=1.0 Shift=0.0 PPM Start=-7.81 PPM End=7.81
 Name=n-acetylaspartate Abbr=NAA Scale=1.0 Shift=0.0 PPM Start=-7.18 PPM End=7.81
 Name=NAAG-truncated Abbr=NAAG Scale=1.0 Shift=0.0 PPM Start=-7.81 PPM End=7.81
 Name=phosphocreatine Abbr=PCr Scale=1.0 Shift=0.0 PPM Start=-7.81 PPM End=7.81
 Name=phosphorylcholine-notrimethyl Abbr=phosphorylcholine-notrimethyl Scale=1.0 Shift=0.0 PPM Start=-7.81 PPM End=7.81
 Name=phosphorylcholine-trimethyl Abbr=phosphorylcholine-trimethyl Scale=1.0 Shift=0.0 PPM Start=-7.81 PPM End=7.81
 Name=phosphorylethanolamine Abbr=PE Scale=1.0 Shift=0.0 PPM Start=-7.81 PPM End=7.81
 Name=pyruvate Abbr=Pyr Scale=1.0 Shift=0.0 PPM Start=-7.51 PPM End=7.81
 Name=taurine Abbr=Tau Scale=1.0 Shift=0.0 PPM Start=7.81 PPM End=7.81
 Name=glucose-beta+glucose-alpha Abbr=Glc Scale=1.0 Shift=0.0 PPM Start=-7.81 PPM End=7.81
   Mixture of [metab*scale] = glucose-beta*1.000000 + glucose-alpha*1.000000
 
 ===========================================================================
 This LCModel format RAW file was created using the 
 Vespa-Simulation spectral simulation program using 
 the following settings and parameters 
 
 Sweep Width = 3500.0 Hz 
 Vector Size = 2048 points 
 Apodization = 15.0 Hz Lorentzian broadening
 B0 Field    = 127.74 MHz 
 Ref Singlet = False
  
 This data has been FFTd to be in the FREQUENCY domain
 
 $NMID ID='GPC-pcholine1'
 FMTDAT='(2E16.6)'
 VOLUME=1.0
 TRAMP=1.0
 $END
    5.521220E+00    2.772913E+01
    5.776442E+00    2.851571E+01
    6.060126E+00    2.935166E+01
    6.376700E+00    3.024178E+01
    6.731472E+00    3.119144E+01
    7.130860E+00    3.220671E+01
    7.582677E+00    3.329442E+01
    8.096500E+00    3.446224E+01
    8.684157E+00    3.571876E+01
    9.360372E+00    3.707355E+01
    1.014364E+01    3.853714E+01
    1.105738E+01    4.012097E+01
    1.213155E+01    4.183701E+01
    1.340485E+01    4.369706E+01
    1.492765E+01    4.571117E+01
    1.676571E+01    4.788458E+01
    1.900458E+01    5.021230E+01
    2.175399E+01    5.266966E+01
    2.515035E+01    5.519635E+01
    2.935124E+01    5.767184E+01
    3.451073E+01    5.988515E+01
    4.072454E+01    6.151746E+01
    4.795976E+01    6.217213E+01
    5.602948E+01    6.145020E+01
    6.461540E+01    5.898783E+01
    7.323119E+01    5.447993E+01
    8.121961E+01    4.781998E+01
    8.792295E+01    3.917384E+01
    9.276179E+01    2.886979E+01
    9.518267E+01    1.744195E+01
    9.486365E+01    5.718125E+00
    9.189813E+01   -5.438909E+00
    8.662405E+01   -1.533926E+01
    7.954003E+01   -2.340351E+01
    7.136208E+01   -2.926325E+01
    6.284017E+01   -3.289973E+01
    5.457374E+01   -3.452696E+01
    4.702213E+01   -3.447870E+01
    4.048654E+01   -3.319665E+01
    3.505619E+01   -3.114555E+01
    3.065133E+01   -2.870097E+01
    2.711590E+01   -2.611243E+01
    2.428445E+01   -2.352440E+01
    2.201210E+01   -2.101113E+01
    2.018177E+01   -1.860494E+01
    1.870224E+01   -1.631396E+01
    1.750441E+01   -1.413308E+01
    1.653696E+01   -1.205104E+01
    1.576186E+01   -1.005446E+01
    1.515078E+01   -8.129553E+00
    1.468258E+01   -6.262735E+00
    1.434172E+01   -4.440748E+00
    1.411722E+01   -2.650691E+00
    1.400195E+01   -8.799505E-01
    1.399220E+01    8.838972E-01
    1.408743E+01    2.653215E+00
    1.429022E+01    4.440445E+00
    1.460645E+01    6.258241E+00
    1.504559E+01    8.119599E+00
    1.562127E+01    1.003795E+01
    1.635212E+01    1.202722E+01
    1.726291E+01    1.410177E+01
    1.838628E+01    1.627629E+01
    1.976521E+01    1.856546E+01
    2.145701E+01    2.098309E+01
    2.353971E+01    2.353971E+01
    2.612154E+01    2.623521E+01
    2.934968E+01    2.904212E+01
    3.341080E+01    3.188036E+01
    3.852388E+01    3.458922E+01
    4.492810E+01    3.688570E+01
    5.283638E+01    3.829306E+01
    6.229399E+01    3.806888E+01
    7.290443E+01    3.525422E+01
    8.356407E+01    2.905612E+01
    9.270645E+01    1.951463E+01
    9.922594E+01    7.571885E+00
    1.027549E+02   -5.852195E+00
    1.028875E+02   -2.002382E+01
    9.936565E+01   -3.372809E+01
    9.271921E+01   -4.575117E+01
    8.372602E+01   -5.542092E+01
    7.317760E+01   -6.216904E+01
    6.226198E+01   -6.569847E+01
    5.217456E+01   -6.644627E+01
    4.356012E+01   -6.529385E+01
    3.652036E+01   -6.307050E+01
    3.087835E+01   -6.035460E+01
    2.637897E+01   -5.749234E+01
    2.278041E+01   -5.467240E+01
    1.988176E+01   -5.198893E+01
    1.752506E+01   -4.948188E+01
    1.558970E+01   -4.716163E+01
    1.398471E+01   -4.502366E+01
    1.264139E+01   -4.305678E+01
    1.150737E+01   -4.124721E+01
    1.054233E+01   -3.958072E+01
    9.714958E+00   -3.804353E+01
    9.000675E+00   -3.662286E+01
    8.380043E+00   -3.530707E+01
    7.837550E+00   -3.408572E+01
    7.360716E+00   -3.294948E+01
    6.939420E+00   -3.189008E+01
    6.565397E+00   -3.090016E+01
    6.231849E+00   -2.997323E+01
    5.933145E+00   -2.910352E+01
    5.664592E+00   -2.828591E+01
    5.422259E+00   -2.751583E+01
    5.202829E+00   -2.678925E+01
    5.003492E+00   -2.610253E+01
    4.821853E+00   -2.545243E+01
    4.655868E+00   -2.483607E+01
    4.503775E+00   -2.425082E+01
    4.364051E+00   -2.369434E+01
    4.235381E+00   -2.316451E+01
    4.116615E+00   -2.265941E+01
    4.006751E+00   -2.217730E+01
    3.904910E+00   -2.171661E+01
    3.810319E+00   -2.127589E+01
    3.722297E+00   -2.085383E+01
    3.640240E+00   -2.044924E+01
    3.563614E+00   -2.006101E+01
    3.491942E+00   -1.968813E+01
    3.424801E+00   -1.932969E+01
    3.361812E+00   -1.898483E+01
    3.302634E+00   -1.865276E+01
    3.246960E+00   -1.833276E+01
    3.194516E+00   -1.802417E+01
    3.145050E+00   -1.772635E+01
    3.098338E+00   -1.743874E+01
    3.054175E+00   -1.716080E+01
    3.012375E+00   -1.689203E+01
    2.972767E+00   -1.663197E+01
    2.935198E+00   -1.638018E+01
    2.899526E+00   -1.613626E+01
    2.865623E+00   -1.589983E+01
    2.833371E+00   -1.567054E+01
    2.802663E+00   -1.544806E+01
    2.773400E+00   -1.523207E+01
    2.745492E+00   -1.502228E+01
    2.718854E+00   -1.481843E+01
    2.693410E+00   -1.462024E+01
    2.669087E+00   -1.442748E+01
    2.645821E+00   -1.423993E+01
    2.623550E+00   -1.405736E+01
    2.602217E+00   -1.387957E+01
    2.581767E+00   -1.370637E+01
    2.562152E+00   -1.353758E+01
    2.543327E+00   -1.337302E+01
    2.525250E+00   -1.321253E+01
    2.507880E+00   -1.305596E+01
    2.491176E+00   -1.290316E+01
    2.475106E+00   -1.275399E+01
    2.459639E+00   -1.260831E+01
    2.444742E+00   -1.246601E+01
    2.430381E+00   -1.232696E+01
    2.416535E+00   -1.219104E+01
    2.403186E+00   -1.205814E+01
    2.390300E+00   -1.192817E+01
    2.377855E+00   -1.180102E+01
    2.365840E+00   -1.167659E+01
    2.354235E+00   -1.155481E+01
    2.343015E+00   -1.143557E+01
    2.332164E+00   -1.131881E+01
    2.321669E+00   -1.120444E+01
    2.311512E+00   -1.109238E+01
    2.301678E+00   -1.098257E+01
    2.292152E+00   -1.087494E+01
