 Vespa-Simulation Mixed Metabolite Output
 This file was generated by Vespa-Simulation. You can learn about and download Vespa here:
https://github.com/vespa-mrs/vespa/tree/main/vespa

 
 Output Path/Filename = /home/stud/casperc/bhome/Project1(DeepFit)/DeepFit-data-generation/Initial_spectra_linewidth_10_TE30_1024p
 Output Loop Values = (1,1,1)  ( Loop 1 = 11, Loop 2 = 11, Loop3 Inactive )
 Output Comment
 ---------------------------------------------------------------------------
 
 
 Experiment Information
 ---------------------------------------------------------------------------
 --- Experiment 982623a4-1070-4538-bb82-a4cf0a440db0 ---
 Name: SyntheticDataSetDeepFitTE22
 Public: False
 Created: 2024-10-04T10:31:50
 Comment (abbr.): 
 PI: Casper Cappelen
 b0: 127.740000
 Peak Search PPM low/high: -10.000000 / 10.000000
 Blend tol. PPM/phase: 0.000150 / 50.000000
 Pulse seq.: 43be13ae-de9a-40a1-9a2d-c872d8bjs100 (PRESS Ideal)
 0 User static parameters: 
 28 Metabolites: 2-hydroxyglutarate, alanine, choline-methylene, choline-trimethyl, choline-truncated, creatine, ethanolamine, gaba, glucose-alpha, glucose-beta, glutamate, glutamine, glutathione-glutamate, glutathione-glycine-cysteine, glycine, GPC-gp, GPC-pcholine1, GPC-pcholine2, lactate, myo-inositol, n-acetylaspartate, NAAG-truncated, phosphocreatine, phosphorylcholine-notrimethyl, phosphorylcholine-trimethyl, phosphorylethanolamine, pyruvate, taurine
 28 Simulations: (not shown)
 
 Metabolite Formatting Information
 ---------------------------------------------------------------------------
 Name=2-hydroxyglutarate Abbr=2HG Scale=1.0 Shift=0.0 PPM Start=-7.81 PPM End=7.81
 Name=alanine Abbr=Ala Scale=1.0 Shift=0.0 PPM Start=-7.81 PPM End=7.81
 Name=choline-methylene Abbr=choline-methylene Scale=1.0 Shift=0.0 PPM Start=-7.81 PPM End=7.81
 Name=choline-trimethyl Abbr=choline-trimethyl Scale=1.0 Shift=0.0 PPM Start=-7.81 PPM End=7.81
 Name=choline-truncated Abbr=choline-truncated Scale=1.0 Shift=0.0 PPM Start=-7.81 PPM End=7.81
 Name=creatine Abbr=Cr Scale=1.0 Shift=0.0 PPM Start=-7.81 PPM End=7.81
 Name=ethanolamine Abbr=ETA Scale=1.0 Shift=0.0 PPM Start=-7.81 PPM End=7.81
 Name=gaba Abbr=GABA Scale=1.0 Shift=0.0 PPM Start=-7.81 PPM End=7.81
 Name=glutamate Abbr=Glu Scale=1.0 Shift=0.0 PPM Start=-7.81 PPM End=7.81
 Name=glutamine Abbr=Gln Scale=1.0 Shift=0.0 PPM Start=-7.81 PPM End=7.81
 Name=glutathione-glutamate Abbr=glutathione-glutamate Scale=1.0 Shift=0.0 PPM Start=-7.81 PPM End=7.81
 Name=glutathione-glycine-cysteine Abbr=GSH Scale=1.0 Shift=0.0 PPM Start=-7.81 PPM End=7.81
 Name=glycine Abbr=Gly Scale=1.0 Shift=0.0 PPM Start=-7.81 PPM End=7.81
 Name=GPC-gp Abbr=GPC-gp Scale=1.0 Shift=0.0 PPM Start=-7.81 PPM End=7.81
 Name=GPC-pcholine1 Abbr=GPC-pcholine1 Scale=1.0 Shift=0.0 PPM Start=-7.81 PPM End=7.81
 Name=GPC-pcholine2 Abbr=GPC-pcholine2 Scale=1.0 Shift=0.0 PPM Start=-7.81 PPM End=7.81
 Name=lactate Abbr=Lac Scale=1.0 Shift=0.0 PPM Start=-7.81 PPM End=7.81
 Name=myo-inositol Abbr=mI Scale=1.0 Shift=0.0 PPM Start=-7.81 PPM End=7.81
 Name=n-acetylaspartate Abbr=NAA Scale=1.0 Shift=0.0 PPM Start=-7.18 PPM End=7.81
 Name=NAAG-truncated Abbr=NAAG Scale=1.0 Shift=0.0 PPM Start=-7.81 PPM End=7.81
 Name=phosphocreatine Abbr=PCr Scale=1.0 Shift=0.0 PPM Start=-7.81 PPM End=7.81
 Name=phosphorylcholine-notrimethyl Abbr=phosphorylcholine-notrimethyl Scale=1.0 Shift=0.0 PPM Start=-7.81 PPM End=7.81
 Name=phosphorylcholine-trimethyl Abbr=phosphorylcholine-trimethyl Scale=1.0 Shift=0.0 PPM Start=-7.81 PPM End=7.81
 Name=phosphorylethanolamine Abbr=PE Scale=1.0 Shift=0.0 PPM Start=-7.81 PPM End=7.81
 Name=pyruvate Abbr=Pyr Scale=1.0 Shift=0.0 PPM Start=-7.51 PPM End=7.81
 Name=taurine Abbr=Tau Scale=1.0 Shift=0.0 PPM Start=7.81 PPM End=7.81
 Name=glucose-beta+glucose-alpha Abbr=Glc Scale=1.0 Shift=0.0 PPM Start=-7.81 PPM End=7.81
   Mixture of [metab*scale] = glucose-beta*1.000000 + glucose-alpha*1.000000
 
 ===========================================================================
 This LCModel format RAW file was created using the 
 Vespa-Simulation spectral simulation program using 
 the following settings and parameters 
 
 Sweep Width = 3500.0 Hz 
 Vector Size = 2048 points 
 Apodization = 15.0 Hz Lorentzian broadening
 B0 Field    = 127.74 MHz 
 Ref Singlet = False
  
 This data has been FFTd to be in the FREQUENCY domain
 
 $NMID ID='GPC-pcholine2'
 FMTDAT='(2E16.6)'
 VOLUME=1.0
 TRAMP=1.0
 $END
    5.549292E+00    2.607808E+01
    5.568222E+00    2.631854E+01
    5.587649E+00    2.656331E+01
    5.607574E+00    2.681255E+01
    5.628035E+00    2.706642E+01
    5.649095E+00    2.732505E+01
    5.670798E+00    2.758853E+01
    5.693157E+00    2.785699E+01
    5.716176E+00    2.813055E+01
    5.739879E+00    2.840939E+01
    5.764300E+00    2.869365E+01
    5.789456E+00    2.898346E+01
    5.815344E+00    2.927901E+01
    5.841981E+00    2.958050E+01
    5.869428E+00    2.988815E+01
    5.897757E+00    3.020212E+01
    5.926998E+00    3.052258E+01
    5.957159E+00    3.084974E+01
    5.988276E+00    3.118383E+01
    6.020419E+00    3.152509E+01
    6.053637E+00    3.187371E+01
    6.087941E+00    3.222994E+01
    6.123366E+00    3.259408E+01
    6.160014E+00    3.296641E+01
    6.197994E+00    3.334717E+01
    6.237342E+00    3.373659E+01
    6.278045E+00    3.413497E+01
    6.320153E+00    3.454270E+01
    6.363807E+00    3.496013E+01
    6.409108E+00    3.538753E+01
    6.456027E+00    3.582523E+01
    6.504604E+00    3.627375E+01
    6.555075E+00    3.673353E+01
    6.607584E+00    3.720487E+01
    6.662096E+00    3.768816E+01
    6.718701E+00    3.818399E+01
    6.777617E+00    3.869286E+01
    6.838976E+00    3.921520E+01
    6.902824E+00    3.975152E+01
    6.969267E+00    4.030249E+01
    7.038508E+00    4.086874E+01
    7.110754E+00    4.145087E+01
    7.186154E+00    4.204954E+01
    7.264854E+00    4.266545E+01
    7.347051E+00    4.329940E+01
    7.432986E+00    4.395220E+01
    7.522896E+00    4.462467E+01
    7.617008E+00    4.531771E+01
    7.715571E+00    4.603229E+01
    7.818886E+00    4.676945E+01
    7.927280E+00    4.753026E+01
    8.041086E+00    4.831586E+01
    8.160651E+00    4.912748E+01
    8.286371E+00    4.996645E+01
    8.418701E+00    5.083419E+01
    8.558130E+00    5.173217E+01
    8.705157E+00    5.266198E+01
    8.860320E+00    5.362532E+01
    9.024233E+00    5.462406E+01
    9.197585E+00    5.566017E+01
    9.381104E+00    5.673574E+01
    9.575572E+00    5.785308E+01
    9.781860E+00    5.901465E+01
    1.000095E+01    6.022314E+01
    1.023396E+01    6.148145E+01
    1.048207E+01    6.279266E+01
    1.074661E+01    6.416016E+01
    1.102906E+01    6.558763E+01
    1.133107E+01    6.707907E+01
    1.165449E+01    6.863882E+01
    1.200137E+01    7.027164E+01
    1.237404E+01    7.198274E+01
    1.277512E+01    7.377782E+01
    1.320758E+01    7.566309E+01
    1.367474E+01    7.764543E+01
    1.418037E+01    7.973240E+01
    1.472877E+01    8.193240E+01
    1.532488E+01    8.425471E+01
    1.597438E+01    8.670964E+01
    1.668381E+01    8.930865E+01
    1.746071E+01    9.206453E+01
    1.831388E+01    9.499158E+01
    1.925357E+01    9.810583E+01
    2.029180E+01    1.014253E+02
    2.144270E+01    1.049703E+02
    2.272296E+01    1.087638E+02
    2.415252E+01    1.128319E+02
    2.575522E+01    1.172044E+02
    2.755984E+01    1.219151E+02
    2.960133E+01    1.270029E+02
    3.192238E+01    1.325121E+02
    3.457557E+01    1.384938E+02
    3.762618E+01    1.450070E+02
    4.115593E+01    1.521193E+02
    4.526813E+01    1.599088E+02
    5.009471E+01    1.684652E+02
    5.580592E+01    1.778904E+02
    6.262377E+01    1.882992E+02
    7.084118E+01    1.998176E+02
    8.084905E+01    2.125776E+02
    9.317511E+01    2.267047E+02
    1.085393E+02    2.422910E+02
    1.279315E+02    2.593402E+02
    1.527174E+02    2.776570E+02
    1.847668E+02    2.966318E+02
    2.265679E+02    3.148270E+02
    2.811834E+02    3.292210E+02
    3.516405E+02    3.339664E+02
    4.388200E+02    3.188808E+02
    5.365394E+02    2.694021E+02
    6.248424E+02    1.727672E+02
    6.712506E+02    3.376817E+01
    6.526068E+02   -1.148521E+02
    5.787355E+02   -2.326041E+02
    4.817632E+02   -3.020692E+02
    3.884576E+02   -3.304974E+02
    3.104072E+02   -3.330117E+02
    2.490702E+02   -3.219599E+02
    2.019736E+02   -3.049480E+02
    1.659350E+02   -2.860706E+02
    1.381859E+02   -2.673493E+02
    1.165915E+02   -2.496946E+02
    9.957851E+01   -2.334501E+02
    8.600472E+01   -2.186822E+02
    7.504137E+01   -2.053289E+02
    6.608334E+01   -1.932748E+02
    5.868455E+01   -1.823888E+02
    5.251246E+01   -1.725412E+02
    4.731633E+01   -1.636119E+02
    4.290490E+01   -1.554932E+02
    3.913060E+01   -1.480901E+02
    3.587834E+01   -1.413196E+02
    3.305747E+01   -1.351095E+02
    3.059592E+01   -1.293970E+02
    2.843588E+01   -1.241279E+02
    2.653061E+01   -1.192547E+02
    2.484198E+01   -1.147362E+02
    2.333867E+01   -1.105366E+02
    2.199477E+01   -1.066244E+02
    2.078867E+01   -1.029720E+02
    1.970229E+01   -9.955498E+01
    1.872037E+01   -9.635194E+01
    1.783003E+01   -9.334381E+01
    1.702030E+01   -9.051371E+01
    1.628182E+01   -8.784659E+01
    1.560650E+01   -8.532903E+01
    1.498739E+01   -8.294903E+01
    1.441846E+01   -8.069578E+01
    1.389445E+01   -7.855959E+01
    1.341078E+01   -7.653171E+01
    1.296341E+01   -7.460423E+01
    1.254879E+01   -7.276994E+01
    1.216380E+01   -7.102230E+01
    1.180572E+01   -6.935537E+01
    1.147212E+01   -6.776374E+01
    1.116081E+01   -6.624249E+01
    1.086985E+01   -6.478708E+01
    1.059753E+01   -6.339337E+01
    1.034229E+01   -6.205754E+01
    1.010273E+01   -6.077610E+01
    9.877590E+00   -5.954580E+01
    9.665751E+00   -5.836366E+01
    9.466207E+00   -5.722692E+01
    9.278022E+00   -5.613307E+01
    9.100331E+00   -5.507973E+01
    8.932353E+00   -5.406470E+01
    8.773401E+00   -5.308592E+01
    8.622856E+00   -5.214149E+01
