 Vespa-Simulation Mixed Metabolite Output
 This file was generated by Vespa-Simulation. You can learn about and download Vespa here:
https://github.com/vespa-mrs/vespa/tree/main/vespa

 
 Output Path/Filename = /home/stud/casperc/bhome/Project1(DeepFit)/DeepFit-data-generation/Initial_spectra_linewidth_10_TE30_1024p
 Output Loop Values = (1,1,1)  ( Loop 1 = 11, Loop 2 = 11, Loop3 Inactive )
 Output Comment
 ---------------------------------------------------------------------------
 
 
 Experiment Information
 ---------------------------------------------------------------------------
 --- Experiment 982623a4-1070-4538-bb82-a4cf0a440db0 ---
 Name: SyntheticDataSetDeepFitTE22
 Public: False
 Created: 2024-10-04T10:31:50
 Comment (abbr.): 
 PI: Casper Cappelen
 b0: 127.740000
 Peak Search PPM low/high: -10.000000 / 10.000000
 Blend tol. PPM/phase: 0.000150 / 50.000000
 Pulse seq.: 43be13ae-de9a-40a1-9a2d-c872d8bjs100 (PRESS Ideal)
 0 User static parameters: 
 28 Metabolites: 2-hydroxyglutarate, alanine, choline-methylene, choline-trimethyl, choline-truncated, creatine, ethanolamine, gaba, glucose-alpha, glucose-beta, glutamate, glutamine, glutathione-glutamate, glutathione-glycine-cysteine, glycine, GPC-gp, GPC-pcholine1, GPC-pcholine2, lactate, myo-inositol, n-acetylaspartate, NAAG-truncated, phosphocreatine, phosphorylcholine-notrimethyl, phosphorylcholine-trimethyl, phosphorylethanolamine, pyruvate, taurine
 28 Simulations: (not shown)
 
 Metabolite Formatting Information
 ---------------------------------------------------------------------------
 Name=2-hydroxyglutarate Abbr=2HG Scale=1.0 Shift=0.0 PPM Start=-7.81 PPM End=7.81
 Name=alanine Abbr=Ala Scale=1.0 Shift=0.0 PPM Start=-7.81 PPM End=7.81
 Name=choline-methylene Abbr=choline-methylene Scale=1.0 Shift=0.0 PPM Start=-7.81 PPM End=7.81
 Name=choline-trimethyl Abbr=choline-trimethyl Scale=1.0 Shift=0.0 PPM Start=-7.81 PPM End=7.81
 Name=choline-truncated Abbr=choline-truncated Scale=1.0 Shift=0.0 PPM Start=-7.81 PPM End=7.81
 Name=creatine Abbr=Cr Scale=1.0 Shift=0.0 PPM Start=-7.81 PPM End=7.81
 Name=ethanolamine Abbr=ETA Scale=1.0 Shift=0.0 PPM Start=-7.81 PPM End=7.81
 Name=gaba Abbr=GABA Scale=1.0 Shift=0.0 PPM Start=-7.81 PPM End=7.81
 Name=glutamate Abbr=Glu Scale=1.0 Shift=0.0 PPM Start=-7.81 PPM End=7.81
 Name=glutamine Abbr=Gln Scale=1.0 Shift=0.0 PPM Start=-7.81 PPM End=7.81
 Name=glutathione-glutamate Abbr=glutathione-glutamate Scale=1.0 Shift=0.0 PPM Start=-7.81 PPM End=7.81
 Name=glutathione-glycine-cysteine Abbr=GSH Scale=1.0 Shift=0.0 PPM Start=-7.81 PPM End=7.81
 Name=glycine Abbr=Gly Scale=1.0 Shift=0.0 PPM Start=-7.81 PPM End=7.81
 Name=GPC-gp Abbr=GPC-gp Scale=1.0 Shift=0.0 PPM Start=-7.81 PPM End=7.81
 Name=GPC-pcholine1 Abbr=GPC-pcholine1 Scale=1.0 Shift=0.0 PPM Start=-7.81 PPM End=7.81
 Name=GPC-pcholine2 Abbr=GPC-pcholine2 Scale=1.0 Shift=0.0 PPM Start=-7.81 PPM End=7.81
 Name=lactate Abbr=Lac Scale=1.0 Shift=0.0 PPM Start=-7.81 PPM End=7.81
 Name=myo-inositol Abbr=mI Scale=1.0 Shift=0.0 PPM Start=-7.81 PPM End=7.81
 Name=n-acetylaspartate Abbr=NAA Scale=1.0 Shift=0.0 PPM Start=-7.18 PPM End=7.81
 Name=NAAG-truncated Abbr=NAAG Scale=1.0 Shift=0.0 PPM Start=-7.81 PPM End=7.81
 Name=phosphocreatine Abbr=PCr Scale=1.0 Shift=0.0 PPM Start=-7.81 PPM End=7.81
 Name=phosphorylcholine-notrimethyl Abbr=phosphorylcholine-notrimethyl Scale=1.0 Shift=0.0 PPM Start=-7.81 PPM End=7.81
 Name=phosphorylcholine-trimethyl Abbr=phosphorylcholine-trimethyl Scale=1.0 Shift=0.0 PPM Start=-7.81 PPM End=7.81
 Name=phosphorylethanolamine Abbr=PE Scale=1.0 Shift=0.0 PPM Start=-7.81 PPM End=7.81
 Name=pyruvate Abbr=Pyr Scale=1.0 Shift=0.0 PPM Start=-7.51 PPM End=7.81
 Name=taurine Abbr=Tau Scale=1.0 Shift=0.0 PPM Start=7.81 PPM End=7.81
 Name=glucose-beta+glucose-alpha Abbr=Glc Scale=1.0 Shift=0.0 PPM Start=-7.81 PPM End=7.81
   Mixture of [metab*scale] = glucose-beta*1.000000 + glucose-alpha*1.000000
 
 ===========================================================================
 This LCModel format RAW file was created using the 
 Vespa-Simulation spectral simulation program using 
 the following settings and parameters 
 
 Sweep Width = 3500.0 Hz 
 Vector Size = 2048 points 
 Apodization = 15.0 Hz Lorentzian broadening
 B0 Field    = 127.74 MHz 
 Ref Singlet = False
  
 $NMID ID='GPC-gp'
 FMTDAT='(2E16.6)'
 VOLUME=1.0
 TRAMP=1.0
 $END
    4.964764E+00    6.311230E-04
    4.795163E+00    1.005118E+00
    4.423727E+00    1.939060E+00
    3.872740E+00    2.762345E+00
    3.172312E+00    3.441190E+00
    2.358677E+00    3.949609E+00
    1.472234E+00    4.270455E+00
    5.554323E-01    4.395978E+00
   -3.493466E-01    4.327881E+00
   -1.201929E+00    4.076907E+00
   -1.966147E+00    3.661972E+00
   -2.611544E+00    3.108902E+00
   -3.114549E+00    2.448913E+00
   -3.459409E+00    1.716794E+00
   -3.638556E+00    9.490884E-01
   -3.652626E+00    1.822023E-01
   -3.510020E+00   -5.494567E-01
   -3.226081E+00   -1.214960E+00
   -2.821979E+00   -1.788283E+00
   -2.323349E+00   -2.249291E+00
   -1.758711E+00   -2.584459E+00
   -1.157948E+00   -2.787076E+00
   -5.506766E-01   -2.857212E+00
    3.518808E-02   -2.801276E+00
    5.747955E-01   -2.631269E+00
    1.047317E+00   -2.363797E+00
    1.436782E+00   -2.018903E+00
    1.732516E+00   -1.618799E+00
    1.929333E+00   -1.186515E+00
    2.027292E+00   -7.447418E-01
    2.031365E+00   -3.145572E-01
    1.950709E+00    8.549945E-02
    1.797834E+00    4.401238E-01
    1.587640E+00    7.379028E-01
    1.336377E+00    9.715086E-01
    1.060663E+00    1.137675E+00
    7.764656E-01    1.237077E+00
    4.983447E-01    1.273803E+00
    2.386896E-01    1.254833E+00
    7.261550E-03    1.189281E+00
   -1.890566E-01    1.087630E+00
   -3.464359E-01    9.609356E-01
   -4.638939E-01    8.200799E-01
   -5.430886E-01    6.750771E-01
   -5.878511E-01    5.345231E-01
   -6.036392E-01    4.052060E-01
   -5.969802E-01    2.918195E-01
   -5.748305E-01    1.968979E-01
   -5.439850E-01    1.209141E-01
   -5.105623E-01    6.245698E-02
   -4.795592E-01    1.862168E-02
   -4.545430E-01   -1.460116E-02
   -4.374667E-01   -4.182453E-02
   -4.286303E-01   -6.775479E-02
   -4.267712E-01   -9.674271E-02
   -4.292791E-01   -1.323470E-01
   -4.325139E-01   -1.769864E-01
   -4.321966E-01   -2.317082E-01
   -4.238248E-01   -2.961031E-01
   -4.031389E-01   -3.682556E-01
   -3.665357E-01   -4.448967E-01
   -3.114044E-01   -5.216610E-01
   -2.364669E-01   -5.933575E-01
   -1.419526E-01   -6.543882E-01
   -2.963249E-02   -6.991799E-01
    9.713246E-02   -7.225898E-01
    2.335741E-01   -7.203401E-01
    3.738158E-01   -6.893560E-01
    5.111123E-01   -6.280713E-01
    6.383118E-01   -5.366091E-01
    7.482674E-01   -4.168846E-01
    8.343257E-01   -2.725150E-01
    8.906910E-01   -1.087701E-01
    9.128568E-01    6.770821E-02
    8.979061E-01    2.493037E-01
    8.447343E-01    4.277077E-01
    7.541907E-01    5.944270E-01
    6.290390E-01    7.412984E-01
    4.739247E-01    8.608383E-01
    2.951475E-01    9.467297E-01
    1.002877E-01    9.941947E-01
   -1.020529E-01    1.000224E+00
   -3.027640E-01    9.637975E-01
   -4.926550E-01    8.859655E-01
   -6.630065E-01    7.697720E-01
   -8.058991E-01    6.201682E-01
   -9.146916E-01    4.437587E-01
   -9.843823E-01    2.484021E-01
   -1.011790E+00    4.292861E-02
   -9.957657E-01   -1.633532E-01
   -9.372153E-01   -3.611911E-01
   -8.390537E-01   -5.417167E-01
   -7.060579E-01   -6.969513E-01
   -5.445556E-01   -8.202322E-01
   -3.621788E-01   -9.064247E-01
   -1.674422E-01   -9.522168E-01
    3.075498E-02   -9.562543E-01
    2.234477E-01   -9.191393E-01
    4.021209E-01   -8.433911E-01
    5.590775E-01   -7.332889E-01
    6.878588E-01   -5.945816E-01
    7.834248E-01   -4.342364E-01
    8.424274E-01   -2.600538E-01
    8.633320E-01   -8.020360E-02
    8.463975E-01    9.707227E-02
    7.936479E-01    2.639109E-01
    7.086909E-01    4.132475E-01
    5.965149E-01    5.390242E-01
    4.632039E-01    6.365069E-01
    3.155531E-01    7.024907E-01
    1.607907E-01    7.353284E-01
    6.165174E-03    7.349972E-01
   -1.413942E-01    7.030205E-01
   -2.755704E-01    6.423410E-01
   -3.910502E-01    5.570748E-01
   -4.835645E-01    4.523128E-01
   -5.501620E-01    3.337982E-01
   -5.892592E-01    2.076219E-01
   -6.006495E-01    7.990886E-02
   -5.854422E-01   -4.348287E-02
   -5.459449E-01   -1.572104E-01
   -4.854619E-01   -2.567752E-01
   -4.081024E-01   -3.385537E-01
   -3.185171E-01   -4.000210E-01
   -2.216382E-01   -4.397862E-01
   -1.224155E-01   -4.575919E-01
   -2.558822E-02   -4.542542E-01
    6.461775E-02   -4.315591E-01
    1.445538E-01   -3.920906E-01
    2.113701E-01   -3.390589E-01
    2.630856E-01   -2.760878E-01
    2.986279E-01   -2.069972E-01
    3.178145E-01   -1.356043E-01
    3.213194E-01   -6.547029E-02
    3.105289E-01    1.901407E-04
    2.874399E-01    5.870206E-02
    2.544932E-01    1.080179E-01
    2.144026E-01    1.467757E-01
    1.699812E-01    1.743148E-01
    1.239833E-01    1.906445E-01
    7.892038E-02    1.964052E-01
    3.698530E-02    1.927365E-01
   -7.626013E-05    1.811876E-01
   -3.102002E-02    1.635780E-01
   -5.512985E-02    1.418588E-01
   -7.220478E-02    1.179810E-01
   -8.254005E-02    9.375748E-02
   -8.682615E-02    7.077447E-02
   -8.608287E-02    5.029688E-02
   -8.154942E-02    3.321477E-02
   -7.457335E-02    2.001673E-02
   -6.650015E-02    1.079256E-02
   -5.857032E-02    5.265991E-03
   -5.183136E-02    2.839046E-03
   -4.706742E-02    2.681318E-03
   -4.475403E-02    3.806065E-03
   -4.503679E-02    5.166810E-03
   -4.773576E-02    5.751228E-03
   -5.237408E-02    4.670869E-03
   -5.822925E-02    1.228097E-03
   -6.439874E-02   -5.013313E-03
   -6.988068E-02   -1.419838E-02
   -7.365938E-02   -2.616388E-02
   -7.479123E-02   -4.044656E-02
   -7.248502E-02   -5.631372E-02
   -6.617393E-02   -7.281055E-02
   -5.555712E-02   -8.883892E-02
   -4.065000E-02   -1.032168E-01
   -2.178649E-02   -1.147751E-01
    3.884075E-04   -1.224392E-01
