 Vespa-Simulation Mixed Metabolite Output
 This file was generated by Vespa-Simulation. You can learn about and download Vespa here:
https://github.com/vespa-mrs/vespa/tree/main/vespa

 
 Output Path/Filename = /home/stud/casperc/bhome/Project1(DeepFit)/DeepFit-data-generation/Initial_spectra_linewidth_10_TE30_1024p
 Output Loop Values = (1,1,1)  ( Loop 1 = 11, Loop 2 = 11, Loop3 Inactive )
 Output Comment
 ---------------------------------------------------------------------------
 
 
 Experiment Information
 ---------------------------------------------------------------------------
 --- Experiment 982623a4-1070-4538-bb82-a4cf0a440db0 ---
 Name: SyntheticDataSetDeepFitTE22
 Public: False
 Created: 2024-10-04T10:31:50
 Comment (abbr.): 
 PI: Casper Cappelen
 b0: 127.740000
 Peak Search PPM low/high: -10.000000 / 10.000000
 Blend tol. PPM/phase: 0.000150 / 50.000000
 Pulse seq.: 43be13ae-de9a-40a1-9a2d-c872d8bjs100 (PRESS Ideal)
 0 User static parameters: 
 28 Metabolites: 2-hydroxyglutarate, alanine, choline-methylene, choline-trimethyl, choline-truncated, creatine, ethanolamine, gaba, glucose-alpha, glucose-beta, glutamate, glutamine, glutathione-glutamate, glutathione-glycine-cysteine, glycine, GPC-gp, GPC-pcholine1, GPC-pcholine2, lactate, myo-inositol, n-acetylaspartate, NAAG-truncated, phosphocreatine, phosphorylcholine-notrimethyl, phosphorylcholine-trimethyl, phosphorylethanolamine, pyruvate, taurine
 28 Simulations: (not shown)
 
 Metabolite Formatting Information
 ---------------------------------------------------------------------------
 Name=2-hydroxyglutarate Abbr=2HG Scale=1.0 Shift=0.0 PPM Start=-7.81 PPM End=7.81
 Name=alanine Abbr=Ala Scale=1.0 Shift=0.0 PPM Start=-7.81 PPM End=7.81
 Name=choline-methylene Abbr=choline-methylene Scale=1.0 Shift=0.0 PPM Start=-7.81 PPM End=7.81
 Name=choline-trimethyl Abbr=choline-trimethyl Scale=1.0 Shift=0.0 PPM Start=-7.81 PPM End=7.81
 Name=choline-truncated Abbr=choline-truncated Scale=1.0 Shift=0.0 PPM Start=-7.81 PPM End=7.81
 Name=creatine Abbr=Cr Scale=1.0 Shift=0.0 PPM Start=-7.81 PPM End=7.81
 Name=ethanolamine Abbr=ETA Scale=1.0 Shift=0.0 PPM Start=-7.81 PPM End=7.81
 Name=gaba Abbr=GABA Scale=1.0 Shift=0.0 PPM Start=-7.81 PPM End=7.81
 Name=glutamate Abbr=Glu Scale=1.0 Shift=0.0 PPM Start=-7.81 PPM End=7.81
 Name=glutamine Abbr=Gln Scale=1.0 Shift=0.0 PPM Start=-7.81 PPM End=7.81
 Name=glutathione-glutamate Abbr=glutathione-glutamate Scale=1.0 Shift=0.0 PPM Start=-7.81 PPM End=7.81
 Name=glutathione-glycine-cysteine Abbr=GSH Scale=1.0 Shift=0.0 PPM Start=-7.81 PPM End=7.81
 Name=glycine Abbr=Gly Scale=1.0 Shift=0.0 PPM Start=-7.81 PPM End=7.81
 Name=GPC-gp Abbr=GPC-gp Scale=1.0 Shift=0.0 PPM Start=-7.81 PPM End=7.81
 Name=GPC-pcholine1 Abbr=GPC-pcholine1 Scale=1.0 Shift=0.0 PPM Start=-7.81 PPM End=7.81
 Name=GPC-pcholine2 Abbr=GPC-pcholine2 Scale=1.0 Shift=0.0 PPM Start=-7.81 PPM End=7.81
 Name=lactate Abbr=Lac Scale=1.0 Shift=0.0 PPM Start=-7.81 PPM End=7.81
 Name=myo-inositol Abbr=mI Scale=1.0 Shift=0.0 PPM Start=-7.81 PPM End=7.81
 Name=n-acetylaspartate Abbr=NAA Scale=1.0 Shift=0.0 PPM Start=-7.18 PPM End=7.81
 Name=NAAG-truncated Abbr=NAAG Scale=1.0 Shift=0.0 PPM Start=-7.81 PPM End=7.81
 Name=phosphocreatine Abbr=PCr Scale=1.0 Shift=0.0 PPM Start=-7.81 PPM End=7.81
 Name=phosphorylcholine-notrimethyl Abbr=phosphorylcholine-notrimethyl Scale=1.0 Shift=0.0 PPM Start=-7.81 PPM End=7.81
 Name=phosphorylcholine-trimethyl Abbr=phosphorylcholine-trimethyl Scale=1.0 Shift=0.0 PPM Start=-7.81 PPM End=7.81
 Name=phosphorylethanolamine Abbr=PE Scale=1.0 Shift=0.0 PPM Start=-7.81 PPM End=7.81
 Name=pyruvate Abbr=Pyr Scale=1.0 Shift=0.0 PPM Start=-7.51 PPM End=7.81
 Name=taurine Abbr=Tau Scale=1.0 Shift=0.0 PPM Start=7.81 PPM End=7.81
 Name=glucose-beta+glucose-alpha Abbr=Glc Scale=1.0 Shift=0.0 PPM Start=-7.81 PPM End=7.81
   Mixture of [metab*scale] = glucose-beta*1.000000 + glucose-alpha*1.000000
 
 ===========================================================================
 This LCModel format RAW file was created using the 
 Vespa-Simulation spectral simulation program using 
 the following settings and parameters 
 
 Sweep Width = 3500.0 Hz 
 Vector Size = 2048 points 
 Apodization = 15.0 Hz Lorentzian broadening
 B0 Field    = 127.74 MHz 
 Ref Singlet = False
  
 $NMID ID='GPC-pcholine2'
 FMTDAT='(2E16.6)'
 VOLUME=1.0
 TRAMP=1.0
 $END
    9.000000E+00   -1.544627E-16
    8.367683E+00    2.971502E+00
    6.798700E+00    5.525464E+00
    4.496715E+00    7.381964E+00
    1.743507E+00    8.347992E+00
   -1.135217E+00    8.337133E+00
   -3.808105E+00    7.376576E+00
   -5.976066E+00    5.600998E+00
   -7.405462E+00    3.234397E+00
   -7.953065E+00    5.621074E-01
   -7.579895E+00   -2.103213E+00
   -6.352933E+00   -4.458086E+00
   -4.434689E+00   -6.242394E+00
   -2.062077E+00   -7.268010E+00
    4.824655E-01   -7.438207E+00
    2.904389E+00   -6.756336E+00
    4.931060E+00   -5.322713E+00
    6.342005E+00   -3.320671E+00
    6.992809E+00   -9.934391E-01
    6.829518E+00    1.385122E+00
    5.892367E+00    3.542696E+00
    4.308697E+00    5.239266E+00
    2.276137E+00    6.293760E+00
    3.825875E-02    6.603082E+00
   -2.144557E+00    6.151795E+00
   -4.025012E+00    5.011518E+00
   -5.396867E+00    3.330489E+00
   -6.117308E+00    1.314656E+00
   -6.121573E+00   -7.974840E-01
   -5.428195E+00   -2.762572E+00
   -4.134733E+00   -4.360673E+00
   -2.404449E+00   -5.419472E+00
   -4.462128E-01   -5.832582E+00
    1.510839E+00   -5.570131E+00
    3.243797E+00   -4.679936E+00
    4.561041E+00   -3.280160E+00
    5.323605E+00   -1.543762E+00
    5.459283E+00    3.223536E-01
    4.969307E+00    2.102159E+00
    3.926087E+00    3.595195E+00
    2.463256E+00    4.638859E+00
    7.585593E-01    5.126235E+00
   -9.872270E-01    5.016535E+00
   -2.574142E+00    4.338147E+00
   -3.825625E+00    3.183437E+00
   -4.607904E+00    1.696702E+00
   -4.844360E+00    5.613904E-02
   -4.522531E+00   -1.547284E+00
   -3.693940E+00   -2.931750E+00
   -2.466418E+00   -3.945407E+00
   -9.905107E-01   -4.482538E+00
    5.590466E-01   -4.494643E+00
    2.003780E+00   -3.994267E+00
    3.181761E+00   -3.052072E+00
    3.965905E+00   -1.787146E+00
    4.277329E+00   -3.521454E-01
    4.093074E+00    1.084857E+00
    3.447358E+00    2.359981E+00
    2.425944E+00    3.332395E+00
    1.155229E+00    3.899245E+00
   -2.132731E-01    4.006716E+00
   -1.521200E+00    3.654788E+00
   -2.621034E+00    2.895743E+00
   -3.392937E+00    1.826970E+00
   -3.757767E+00    5.783494E-01
   -3.684703E+00   -7.030002E-01
   -3.193747E+00   -1.870126E+00
   -2.351889E+00   -2.793222E+00
   -1.264398E+00   -3.373502E+00
   -6.172056E-02   -3.553951E+00
    1.115961E+00   -3.324655E+00
    2.135266E+00   -2.722605E+00
    2.884175E+00   -1.826307E+00
    3.284515E+00   -7.457875E-01
    3.299984E+00    3.910710E-01
    2.939007E+00    1.453162E+00
    2.252770E+00    2.321394E+00
    1.328028E+00    2.902098E+00
    2.765255E-01    3.136677E+00
   -7.784825E-01    3.007614E+00
   -1.716821E+00    2.539266E+00
   -2.434596E+00    1.794009E+00
   -2.855875E+00    8.641230E-01
   -2.940536E+00   -1.394575E-01
   -2.687889E+00   -1.100546E+00
   -2.135668E+00   -1.910692E+00
   -1.354813E+00   -2.481557E+00
   -4.402795E-01   -2.754527E+00
    5.001260E-01   -2.706363E+00
    1.358503E+00   -2.351117E+00
    2.039331E+00   -1.737386E+00
    2.469687E+00   -9.419846E-01
    2.607185E+00   -6.043504E-02
    2.443958E+00    8.046342E-01
    2.006577E+00    1.555031E+00
    1.352214E+00    2.108263E+00
    5.611149E-01    2.406602E+00
   -2.729049E-01    2.422779E+00
   -1.053668E+00    2.162450E+00
   -1.693584E+00    1.662662E+00
   -2.123560E+00    9.866671E-01
   -2.300130E+00    2.162009E-01
   -2.209920E+00   -5.583810E-01
   -1.870289E+00   -1.248806E+00
   -1.326560E+00   -1.778585E+00
   -6.461620E-01   -2.091602E+00
    8.982872E-02   -2.157992E+00
    7.960292E-01   -1.976713E+00
    1.392723E+00   -1.575034E+00
    1.814905E+00   -1.004532E+00
    2.019060E+00   -3.347203E-01
    1.987717E+00    3.554369E-01
    1.730705E+00    9.867555E-01
    1.283373E+00    1.488801E+00
    7.016408E-01    1.807934E+00
    5.541193E-02    1.912572E+00
   -5.799616E-01    1.796490E+00
   -1.132367E+00    1.478781E+00
   -1.541061E+00    1.001005E+00
   -1.763292E+00    4.218568E-01
   -1.778698E+00   -1.898943E-01
   -1.591029E+00   -7.638314E-01
   -1.227047E+00   -1.235480E+00
   -7.329120E-01   -1.553814E+00
   -1.683896E-01   -1.686631E+00
    4.003223E-01   -1.623727E+00
    9.082448E-01   -1.377510E+00
    1.299249E+00   -9.808477E-01
    1.531814E+00   -4.829561E-01
    1.583648E+00    5.674058E-02
    1.453647E+00    5.756326E-01
    1.161456E+00    1.015145E+00
    7.447385E-01    1.327269E+00
    2.541844E-01    1.479908E+00
   -2.523009E-01    1.459855E+00
   -7.165797E-01    1.273983E+00
   -1.086868E+00    9.478774E-01
   -1.323469E+00    5.224247E-01
   -1.402973E+00    4.874486E-02
   -1.320514E+00   -4.178445E-01
   -1.089774E+00   -8.244856E-01
   -7.409832E-01   -1.126372E+00
   -3.170238E-01   -1.291886E+00
    1.317967E-01   -1.305791E+00
    5.536743E-01   -1.170531E+00
    9.012105E-01   -9.055220E-01
    1.136871E+00   -5.443444E-01
    1.236723E+00   -1.307343E-01
    1.192996E+00    2.867841E-01
    1.014488E+00    6.605302E-01
    7.251203E-01    9.490783E-01
    3.608130E-01    1.121812E+00
   -3.487736E-02    1.162126E+00
   -4.161302E-01    1.068960E+00
   -7.398352E-01    8.564599E-01
   -9.706346E-01    5.520111E-01
   -1.084697E+00    1.927492E-01
   -1.072128E+00   -1.789317E-01
   -9.377455E-01   -5.203056E-01
   -7.000685E-01   -7.933676E-01
   -3.889329E-01   -9.687699E-01
   -4.174445E-02   -1.029120E+00
    3.009765E-01   -9.705968E-01
    6.002951E-01   -8.030282E-01
    8.232572E-01   -5.484061E-01
    9.464739E-01   -2.381006E-01
    9.585893E-01    9.112886E-02
    8.611506E-01    4.012269E-01
    6.681719E-01    6.573658E-01
    4.041815E-01    8.317921E-01
