 Vespa-Simulation Mixed Metabolite Output
 This file was generated by Vespa-Simulation. You can learn about and download Vespa here:
https://github.com/vespa-mrs/vespa/tree/main/vespa

 
 Output Path/Filename = /home/stud/casperc/bhome/Project1(DeepFit)/DeepFit-data-generation/Initial_spectra_linewidth_10_TE30_1024p
 Output Loop Values = (1,1,1)  ( Loop 1 = 11, Loop 2 = 11, Loop3 Inactive )
 Output Comment
 ---------------------------------------------------------------------------
 
 
 Experiment Information
 ---------------------------------------------------------------------------
 --- Experiment 982623a4-1070-4538-bb82-a4cf0a440db0 ---
 Name: SyntheticDataSetDeepFitTE22
 Public: False
 Created: 2024-10-04T10:31:50
 Comment (abbr.): 
 PI: Casper Cappelen
 b0: 127.740000
 Peak Search PPM low/high: -10.000000 / 10.000000
 Blend tol. PPM/phase: 0.000150 / 50.000000
 Pulse seq.: 43be13ae-de9a-40a1-9a2d-c872d8bjs100 (PRESS Ideal)
 0 User static parameters: 
 28 Metabolites: 2-hydroxyglutarate, alanine, choline-methylene, choline-trimethyl, choline-truncated, creatine, ethanolamine, gaba, glucose-alpha, glucose-beta, glutamate, glutamine, glutathione-glutamate, glutathione-glycine-cysteine, glycine, GPC-gp, GPC-pcholine1, GPC-pcholine2, lactate, myo-inositol, n-acetylaspartate, NAAG-truncated, phosphocreatine, phosphorylcholine-notrimethyl, phosphorylcholine-trimethyl, phosphorylethanolamine, pyruvate, taurine
 28 Simulations: (not shown)
 
 Metabolite Formatting Information
 ---------------------------------------------------------------------------
 Name=2-hydroxyglutarate Abbr=2HG Scale=1.0 Shift=0.0 PPM Start=-7.81 PPM End=7.81
 Name=alanine Abbr=Ala Scale=1.0 Shift=0.0 PPM Start=-7.81 PPM End=7.81
 Name=choline-methylene Abbr=choline-methylene Scale=1.0 Shift=0.0 PPM Start=-7.81 PPM End=7.81
 Name=choline-trimethyl Abbr=choline-trimethyl Scale=1.0 Shift=0.0 PPM Start=-7.81 PPM End=7.81
 Name=choline-truncated Abbr=choline-truncated Scale=1.0 Shift=0.0 PPM Start=-7.81 PPM End=7.81
 Name=creatine Abbr=Cr Scale=1.0 Shift=0.0 PPM Start=-7.81 PPM End=7.81
 Name=ethanolamine Abbr=ETA Scale=1.0 Shift=0.0 PPM Start=-7.81 PPM End=7.81
 Name=gaba Abbr=GABA Scale=1.0 Shift=0.0 PPM Start=-7.81 PPM End=7.81
 Name=glutamate Abbr=Glu Scale=1.0 Shift=0.0 PPM Start=-7.81 PPM End=7.81
 Name=glutamine Abbr=Gln Scale=1.0 Shift=0.0 PPM Start=-7.81 PPM End=7.81
 Name=glutathione-glutamate Abbr=glutathione-glutamate Scale=1.0 Shift=0.0 PPM Start=-7.81 PPM End=7.81
 Name=glutathione-glycine-cysteine Abbr=GSH Scale=1.0 Shift=0.0 PPM Start=-7.81 PPM End=7.81
 Name=glycine Abbr=Gly Scale=1.0 Shift=0.0 PPM Start=-7.81 PPM End=7.81
 Name=GPC-gp Abbr=GPC-gp Scale=1.0 Shift=0.0 PPM Start=-7.81 PPM End=7.81
 Name=GPC-pcholine1 Abbr=GPC-pcholine1 Scale=1.0 Shift=0.0 PPM Start=-7.81 PPM End=7.81
 Name=GPC-pcholine2 Abbr=GPC-pcholine2 Scale=1.0 Shift=0.0 PPM Start=-7.81 PPM End=7.81
 Name=lactate Abbr=Lac Scale=1.0 Shift=0.0 PPM Start=-7.81 PPM End=7.81
 Name=myo-inositol Abbr=mI Scale=1.0 Shift=0.0 PPM Start=-7.81 PPM End=7.81
 Name=n-acetylaspartate Abbr=NAA Scale=1.0 Shift=0.0 PPM Start=-7.18 PPM End=7.81
 Name=NAAG-truncated Abbr=NAAG Scale=1.0 Shift=0.0 PPM Start=-7.81 PPM End=7.81
 Name=phosphocreatine Abbr=PCr Scale=1.0 Shift=0.0 PPM Start=-7.81 PPM End=7.81
 Name=phosphorylcholine-notrimethyl Abbr=phosphorylcholine-notrimethyl Scale=1.0 Shift=0.0 PPM Start=-7.81 PPM End=7.81
 Name=phosphorylcholine-trimethyl Abbr=phosphorylcholine-trimethyl Scale=1.0 Shift=0.0 PPM Start=-7.81 PPM End=7.81
 Name=phosphorylethanolamine Abbr=PE Scale=1.0 Shift=0.0 PPM Start=-7.81 PPM End=7.81
 Name=pyruvate Abbr=Pyr Scale=1.0 Shift=0.0 PPM Start=-7.51 PPM End=7.81
 Name=taurine Abbr=Tau Scale=1.0 Shift=0.0 PPM Start=7.81 PPM End=7.81
 Name=glucose-beta+glucose-alpha Abbr=Glc Scale=1.0 Shift=0.0 PPM Start=-7.81 PPM End=7.81
   Mixture of [metab*scale] = glucose-beta*1.000000 + glucose-alpha*1.000000
 
 ===========================================================================
 This LCModel format RAW file was created using the 
 Vespa-Simulation spectral simulation program using 
 the following settings and parameters 
 
 Sweep Width = 3500.0 Hz 
 Vector Size = 2048 points 
 Apodization = 15.0 Hz Lorentzian broadening
 B0 Field    = 127.74 MHz 
 Ref Singlet = False
  
 $NMID ID='GPC-pcholine1'
 FMTDAT='(2E16.6)'
 VOLUME=1.0
 TRAMP=1.0
 $END
    3.655923E+00    4.493988E-05
    3.550132E+00    5.871367E-01
    3.334246E+00    1.133857E+00
    3.021179E+00    1.618075E+00
    2.628304E+00    2.021485E+00
    2.176387E+00    2.330477E+00
    1.688353E+00    2.536704E+00
    1.187984E+00    2.637362E+00
    6.986215E-01    2.635124E+00
    2.418848E-01    2.537816E+00
   -1.633797E-01    2.357770E+00
   -5.020679E-01    2.110988E+00
   -7.634397E-01    1.816114E+00
   -9.415725E-01    1.493292E+00
   -1.035446E+00    1.162997E+00
   -1.048806E+00    8.448797E-01
   -9.897572E-01    5.566812E-01
   -8.700896E-01    3.133462E-01
   -7.044684E-01    1.262721E-01
   -5.094661E-01    2.816883E-03
   -3.025255E-01   -5.396662E-02
   -1.009138E-01   -4.531116E-02
    7.927696E-02    2.349497E-02
    2.240277E-01    1.435772E-01
    3.221378E-01    3.031349E-01
    3.657849E-01    4.882354E-01
    3.508725E-01    6.837123E-01
    2.771550E-01    8.740985E-01
    1.481121E-01    1.044557E+00
   -2.931373E-02    1.181719E+00
   -2.452822E-01    1.274448E+00
   -4.876837E-01    1.314418E+00
   -7.428539E-01    1.296543E+00
   -9.964854E-01    1.219174E+00
   -1.234423E+00    1.084114E+00
   -1.443434E+00    8.964805E-01
   -1.612022E+00    6.642524E-01
   -1.730951E+00    3.978661E-01
   -1.793774E+00    1.094678E-01
   -1.797087E+00   -1.877599E-01
   -1.740661E+00   -4.802893E-01
   -1.627359E+00   -7.551309E-01
   -1.462930E+00   -1.000383E+00
   -1.255575E+00   -1.205973E+00
   -1.015445E+00   -1.364089E+00
   -7.540814E-01   -1.469508E+00
   -4.836727E-01   -1.519861E+00
   -2.164105E-01   -1.515621E+00
    3.611119E-02   -1.459982E+00
    2.636092E-01   -1.358599E+00
    4.574916E-01   -1.219190E+00
    6.113587E-01   -1.051027E+00
    7.212091E-01   -8.643718E-01
    7.855329E-01   -6.699062E-01
    8.053448E-01   -4.780861E-01
    7.839787E-01   -2.985988E-01
    7.267980E-01   -1.398837E-01
    6.408215E-01   -8.708439E-03
    5.342486E-01    9.017917E-02
    4.159399E-01    1.541381E-01
    2.948948E-01    1.827383E-01
    1.797131E-01    1.776949E-01
    7.814581E-02    1.426284E-01
   -3.327598E-03    8.280260E-02
   -5.982562E-02    4.737097E-03
   -8.826307E-02   -8.422728E-02
   -8.747314E-02   -1.763871E-01
   -5.818287E-02   -2.641541E-01
   -2.912456E-03   -3.404818E-01
    7.424799E-02   -3.992705E-01
    1.679239E-01   -4.356926E-01
    2.718534E-01   -4.464235E-01
    3.792295E-01   -4.297996E-01
    4.831417E-01   -3.858675E-01
    5.770084E-01   -3.162929E-01
    6.548955E-01   -2.242700E-01
    7.118736E-01   -1.142758E-01
    7.442767E-01    8.273358E-03
    7.498534E-01    1.372703E-01
    7.278788E-01    2.663219E-01
    6.791282E-01    3.891652E-01
    6.058177E-01    4.999201E-01
    5.114258E-01    5.934680E-01
    4.004819E-01    6.656876E-01
    2.782306E-01    7.136870E-01
    1.504024E-01    7.358672E-01
    2.285086E-02    7.320060E-01
   -9.881929E-02    7.032181E-01
   -2.094536E-01    6.518375E-01
   -3.046588E-01    5.812632E-01
   -3.810464E-01    4.957077E-01
   -4.362980E-01    3.999721E-01
   -4.692935E-01    2.991523E-01
   -4.801337E-01    1.983161E-01
   -4.700395E-01    1.022890E-01
   -4.412649E-01    1.537388E-02
   -3.969211E-01   -5.888782E-02
   -3.407599E-01   -1.178166E-01
   -2.769425E-01   -1.597395E-01
   -2.097915E-01   -1.840192E-01
   -1.435269E-01   -1.910572E-01
   -8.205843E-02   -1.821899E-01
   -2.876979E-02   -1.595875E-01
    1.365768E-02   -1.260864E-01
    4.334009E-02   -8.498963E-02
    5.927407E-02   -3.986075E-02
    6.135225E-02    5.701063E-03
    5.031842E-02    4.826253E-02
    2.769272E-02    8.475202E-02
   -4.361138E-03    1.126246E-01
   -4.318204E-02    1.299806E-01
   -8.579376E-02    1.356535E-01
   -1.290915E-01    1.292459E-01
   -1.700236E-01    1.111290E-01
   -2.057891E-01    8.236328E-02
   -2.339592E-01    4.464751E-02
   -2.526265E-01    1.730343E-04
   -2.604913E-01   -4.851585E-02
   -2.569151E-01   -9.868144E-02
   -2.419337E-01   -1.475568E-01
   -2.162407E-01   -1.924956E-01
   -1.810946E-01   -2.311568E-01
   -1.382704E-01   -2.615682E-01
   -8.991608E-02   -2.822643E-01
   -3.842550E-02   -2.923408E-01
    1.370390E-02   -2.914845E-01
    6.400076E-02   -2.799728E-01
    1.102035E-01   -2.586271E-01
    1.503040E-01   -2.287575E-01
    1.826963E-01   -1.920675E-01
    2.062356E-01   -1.505455E-01
    2.202815E-01   -1.063454E-01
    2.247088E-01   -6.167171E-02
    2.199036E-01   -1.861948E-02
    2.066985E-01    2.087791E-02
    1.863221E-01    5.518334E-02
    1.603090E-01    8.302162E-02
    1.304009E-01    1.035312E-01
    9.844115E-02    1.162903E-01
    6.627382E-02    1.213147E-01
    3.562146E-02    1.190461E-01
    8.027140E-03    1.102849E-01
   -1.524141E-02    9.614128E-02
   -3.324250E-02    7.795225E-02
   -4.539522E-02    5.719430E-02
   -5.149070E-02    3.539510E-02
   -5.168996E-02    1.403490E-02
   -4.648293E-02   -5.521443E-03
   -3.665068E-02   -2.210462E-02
   -2.320238E-02   -3.479514E-02
   -7.304694E-03   -4.296265E-02
    9.794076E-03   -4.628685E-02
    2.683862E-02   -4.476064E-02
    4.264814E-02   -3.867045E-02
    5.616891E-02   -2.856886E-02
    6.653732E-02   -1.522678E-02
    7.311883E-02    4.219458E-04
    7.553360E-02    1.734287E-02
    7.366795E-02    3.446270E-02
    6.766328E-02    5.074629E-02
    5.790239E-02    6.523565E-02
    4.497271E-02    7.711437E-02
    2.962397E-02    8.574505E-02
    1.271775E-02    9.069761E-02
   -4.826675E-03    9.176463E-02
   -2.208343E-02    8.896380E-02
   -3.818803E-02    8.252379E-02
   -5.236045E-02    7.286504E-02
   -6.396018E-02    6.056574E-02
   -7.251172E-02    4.632231E-02
