 Vespa-Simulation Mixed Metabolite Output
 This file was generated by Vespa-Simulation. You can learn about and download Vespa here:
https://github.com/vespa-mrs/vespa/tree/main/vespa

 
 Output Path/Filename = /home/stud/casperc/bhome/Project1(DeepFit)/DeepFit-data-generation/Initial_spectra_linewidth_10_TE30_1024p
 Output Loop Values = (1,1,1)  ( Loop 1 = 11, Loop 2 = 11, Loop3 Inactive )
 Output Comment
 ---------------------------------------------------------------------------
 
 
 Experiment Information
 ---------------------------------------------------------------------------
 --- Experiment 982623a4-1070-4538-bb82-a4cf0a440db0 ---
 Name: SyntheticDataSetDeepFitTE22
 Public: False
 Created: 2024-10-04T10:31:50
 Comment (abbr.): 
 PI: Casper Cappelen
 b0: 127.740000
 Peak Search PPM low/high: -10.000000 / 10.000000
 Blend tol. PPM/phase: 0.000150 / 50.000000
 Pulse seq.: 43be13ae-de9a-40a1-9a2d-c872d8bjs100 (PRESS Ideal)
 0 User static parameters: 
 28 Metabolites: 2-hydroxyglutarate, alanine, choline-methylene, choline-trimethyl, choline-truncated, creatine, ethanolamine, gaba, glucose-alpha, glucose-beta, glutamate, glutamine, glutathione-glutamate, glutathione-glycine-cysteine, glycine, GPC-gp, GPC-pcholine1, GPC-pcholine2, lactate, myo-inositol, n-acetylaspartate, NAAG-truncated, phosphocreatine, phosphorylcholine-notrimethyl, phosphorylcholine-trimethyl, phosphorylethanolamine, pyruvate, taurine
 28 Simulations: (not shown)
 
 Metabolite Formatting Information
 ---------------------------------------------------------------------------
 Name=2-hydroxyglutarate Abbr=2HG Scale=1.0 Shift=0.0 PPM Start=-7.81 PPM End=7.81
 Name=alanine Abbr=Ala Scale=1.0 Shift=0.0 PPM Start=-7.81 PPM End=7.81
 Name=choline-methylene Abbr=choline-methylene Scale=1.0 Shift=0.0 PPM Start=-7.81 PPM End=7.81
 Name=choline-trimethyl Abbr=choline-trimethyl Scale=1.0 Shift=0.0 PPM Start=-7.81 PPM End=7.81
 Name=choline-truncated Abbr=choline-truncated Scale=1.0 Shift=0.0 PPM Start=-7.81 PPM End=7.81
 Name=creatine Abbr=Cr Scale=1.0 Shift=0.0 PPM Start=-7.81 PPM End=7.81
 Name=ethanolamine Abbr=ETA Scale=1.0 Shift=0.0 PPM Start=-7.81 PPM End=7.81
 Name=gaba Abbr=GABA Scale=1.0 Shift=0.0 PPM Start=-7.81 PPM End=7.81
 Name=glutamate Abbr=Glu Scale=1.0 Shift=0.0 PPM Start=-7.81 PPM End=7.81
 Name=glutamine Abbr=Gln Scale=1.0 Shift=0.0 PPM Start=-7.81 PPM End=7.81
 Name=glutathione-glutamate Abbr=glutathione-glutamate Scale=1.0 Shift=0.0 PPM Start=-7.81 PPM End=7.81
 Name=glutathione-glycine-cysteine Abbr=GSH Scale=1.0 Shift=0.0 PPM Start=-7.81 PPM End=7.81
 Name=glycine Abbr=Gly Scale=1.0 Shift=0.0 PPM Start=-7.81 PPM End=7.81
 Name=GPC-gp Abbr=GPC-gp Scale=1.0 Shift=0.0 PPM Start=-7.81 PPM End=7.81
 Name=GPC-pcholine1 Abbr=GPC-pcholine1 Scale=1.0 Shift=0.0 PPM Start=-7.81 PPM End=7.81
 Name=GPC-pcholine2 Abbr=GPC-pcholine2 Scale=1.0 Shift=0.0 PPM Start=-7.81 PPM End=7.81
 Name=lactate Abbr=Lac Scale=1.0 Shift=0.0 PPM Start=-7.81 PPM End=7.81
 Name=myo-inositol Abbr=mI Scale=1.0 Shift=0.0 PPM Start=-7.81 PPM End=7.81
 Name=n-acetylaspartate Abbr=NAA Scale=1.0 Shift=0.0 PPM Start=-7.18 PPM End=7.81
 Name=NAAG-truncated Abbr=NAAG Scale=1.0 Shift=0.0 PPM Start=-7.81 PPM End=7.81
 Name=phosphocreatine Abbr=PCr Scale=1.0 Shift=0.0 PPM Start=-7.81 PPM End=7.81
 Name=phosphorylcholine-notrimethyl Abbr=phosphorylcholine-notrimethyl Scale=1.0 Shift=0.0 PPM Start=-7.81 PPM End=7.81
 Name=phosphorylcholine-trimethyl Abbr=phosphorylcholine-trimethyl Scale=1.0 Shift=0.0 PPM Start=-7.81 PPM End=7.81
 Name=phosphorylethanolamine Abbr=PE Scale=1.0 Shift=0.0 PPM Start=-7.81 PPM End=7.81
 Name=pyruvate Abbr=Pyr Scale=1.0 Shift=0.0 PPM Start=-7.51 PPM End=7.81
 Name=taurine Abbr=Tau Scale=1.0 Shift=0.0 PPM Start=7.81 PPM End=7.81
 Name=glucose-beta+glucose-alpha Abbr=Glc Scale=1.0 Shift=0.0 PPM Start=-7.81 PPM End=7.81
   Mixture of [metab*scale] = glucose-beta*1.000000 + glucose-alpha*1.000000
 
 ===========================================================================
 This LCModel format RAW file was created using the 
 Vespa-Simulation spectral simulation program using 
 the following settings and parameters 
 
 Sweep Width = 3500.0 Hz 
 Vector Size = 2048 points 
 Apodization = 15.0 Hz Lorentzian broadening
 B0 Field    = 127.74 MHz 
 Ref Singlet = False
  
 This data has been FFTd to be in the FREQUENCY domain
 
 $NMID ID='GPC-gp'
 FMTDAT='(2E16.6)'
 VOLUME=1.0
 TRAMP=1.0
 $END
    4.073161E+00    2.440240E+01
    4.124557E+00    2.478638E+01
    4.178537E+00    2.518270E+01
    4.235284E+00    2.559198E+01
    4.294993E+00    2.601486E+01
    4.357874E+00    2.645205E+01
    4.424156E+00    2.690430E+01
    4.494094E+00    2.737241E+01
    4.567965E+00    2.785725E+01
    4.646076E+00    2.835975E+01
    4.728762E+00    2.888090E+01
    4.816393E+00    2.942178E+01
    4.909379E+00    2.998357E+01
    5.008177E+00    3.056751E+01
    5.113292E+00    3.117497E+01
    5.225284E+00    3.180742E+01
    5.344780E+00    3.246648E+01
    5.472482E+00    3.315387E+01
    5.609177E+00    3.387152E+01
    5.755752E+00    3.462149E+01
    5.913206E+00    3.540607E+01
    6.082672E+00    3.622775E+01
    6.265435E+00    3.708928E+01
    6.462963E+00    3.799368E+01
    6.676933E+00    3.894429E+01
    6.909275E+00    3.994482E+01
    7.162221E+00    4.099938E+01
    7.438365E+00    4.211253E+01
    7.740732E+00    4.328940E+01
    8.072876E+00    4.453569E+01
    8.438993E+00    4.585781E+01
    8.844076E+00    4.726298E+01
    9.294103E+00    4.875932E+01
    9.796294E+00    5.035601E+01
    1.035944E+01    5.206343E+01
    1.099437E+01    5.389331E+01
    1.171450E+01    5.585882E+01
    1.253670E+01    5.797468E+01
    1.348228E+01    6.025700E+01
    1.457839E+01    6.272287E+01
    1.585948E+01    6.538918E+01
    1.736852E+01    6.827061E+01
    1.915667E+01    7.137662E+01
    2.128014E+01    7.470966E+01
    2.379589E+01    7.826920E+01
    2.676591E+01    8.206288E+01
    3.027884E+01    8.610940E+01
    3.446741E+01    9.041301E+01
    3.948834E+01    9.493907E+01
    4.550610E+01    9.964013E+01
    5.275411E+01    1.044774E+02
    6.161151E+01    1.093303E+02
    7.256117E+01    1.138508E+02
    8.608288E+01    1.173871E+02
    1.025604E+02    1.188837E+02
    1.219794E+02    1.166942E+02
    1.432337E+02    1.087327E+02
    1.636206E+02    9.348727E+01
    1.795690E+02    7.132898E+01
    1.882386E+02    4.459102E+01
    1.882572E+02    1.653287E+01
    1.796909E+02   -9.228464E+00
    1.644547E+02   -2.928022E+01
    1.460745E+02   -4.184046E+01
    1.280303E+02   -4.743069E+01
    1.124030E+02   -4.789290E+01
    9.989990E+01   -4.510330E+01
    9.051175E+01   -4.046778E+01
    8.392703E+01   -3.496726E+01
    7.969248E+01   -2.919002E+01
    7.744044E+01   -2.334166E+01
    7.710089E+01   -1.745557E+01
    7.888444E+01   -1.167475E+01
    8.313368E+01   -6.414382E+00
    9.016456E+01   -2.453714E+00
    1.000400E+02   -1.030555E+00
    1.121251E+02   -3.829019E+00
    1.244970E+02   -1.245977E+01
    1.339502E+02   -2.722965E+01
    1.373324E+02   -4.617787E+01
    1.333027E+02   -6.570221E+01
    1.228545E+02   -8.229415E+01
    1.084694E+02   -9.384929E+01
    9.292144E+01   -9.994577E+01
    7.840656E+01   -1.014730E+02
    6.608765E+01   -9.995606E+01
    5.616674E+01   -9.684193E+01
    4.829880E+01   -9.313205E+01
    4.197469E+01   -8.936145E+01
    3.674337E+01   -8.573502E+01
    3.228233E+01   -8.227900E+01
    2.840092E+01   -7.893891E+01
    2.502639E+01   -7.565921E+01
    2.214312E+01   -7.244222E+01
    1.972174E+01   -6.933514E+01
    1.770419E+01   -6.638385E+01
    1.602331E+01   -6.361344E+01
    1.461695E+01   -6.103153E+01
    1.343207E+01   -5.863463E+01
    1.242529E+01   -5.641273E+01
    1.156213E+01   -5.435262E+01
    1.081563E+01   -5.244012E+01
    1.016478E+01   -5.066140E+01
    9.593113E+00   -4.900361E+01
    9.087651E+00   -4.745514E+01
    8.638033E+00   -4.600558E+01
    8.235915E+00   -4.464571E+01
    7.874506E+00   -4.336733E+01
    7.548228E+00   -4.216320E+01
    7.252460E+00   -4.102689E+01
    6.983341E+00   -3.995268E+01
    6.737627E+00   -3.893547E+01
    6.512565E+00   -3.797073E+01
    6.305813E+00   -3.705437E+01
    6.115358E+00   -3.618275E+01
    5.939464E+00   -3.535256E+01
    5.776630E+00   -3.456084E+01
    5.625546E+00   -3.380490E+01
    5.485068E+00   -3.308230E+01
    5.354190E+00   -3.239081E+01
    5.232028E+00   -3.172841E+01
    5.117803E+00   -3.109324E+01
    5.010822E+00   -3.048362E+01
    4.910466E+00   -2.989800E+01
    4.816185E+00   -2.933495E+01
    4.727482E+00   -2.879315E+01
    4.643916E+00   -2.827140E+01
    4.565088E+00   -2.776856E+01
    4.490635E+00   -2.728362E+01
    4.420232E+00   -2.681561E+01
    4.353582E+00   -2.636362E+01
    4.290420E+00   -2.592685E+01
    4.230500E+00   -2.550451E+01
    4.173595E+00   -2.509589E+01
    4.119499E+00   -2.470030E+01
    4.068031E+00   -2.431714E+01
    4.019021E+00   -2.394580E+01
    3.972302E+00   -2.358573E+01
    3.927729E+00   -2.323643E+01
    3.885178E+00   -2.289738E+01
    3.844532E+00   -2.256815E+01
    3.805668E+00   -2.224832E+01
    3.768482E+00   -2.193746E+01
    3.732885E+00   -2.163520E+01
    3.698789E+00   -2.134119E+01
    3.666101E+00   -2.105509E+01
    3.634739E+00   -2.077658E+01
    3.604634E+00   -2.050535E+01
    3.575722E+00   -2.024112E+01
    3.547935E+00   -1.998360E+01
    3.521212E+00   -1.973256E+01
    3.495500E+00   -1.948772E+01
    3.470755E+00   -1.924887E+01
    3.446930E+00   -1.901579E+01
    3.423974E+00   -1.878826E+01
    3.401842E+00   -1.856610E+01
    3.380497E+00   -1.834909E+01
    3.359905E+00   -1.813707E+01
    3.340027E+00   -1.792987E+01
    3.320828E+00   -1.772731E+01
    3.302282E+00   -1.752924E+01
    3.284364E+00   -1.733550E+01
    3.267042E+00   -1.714597E+01
    3.250286E+00   -1.696051E+01
    3.234069E+00   -1.677897E+01
    3.218369E+00   -1.660124E+01
    3.203162E+00   -1.642720E+01
    3.188425E+00   -1.625672E+01
