 Vespa-Simulation Mixed Metabolite Output
 This file was generated by Vespa-Simulation. You can learn about and download Vespa here:
https://github.com/vespa-mrs/vespa/tree/main/vespa

 
 Output Path/Filename = /home/stud/casperc/bhome/Project1(DeepFit)/DeepFit-data-generation/Initial_spectra_linewidth_10_TE30_1024p
 Output Loop Values = (1,1,1)  ( Loop 1 = 15, Loop 2 = 15, Loop3 Inactive )
 Output Comment
 ---------------------------------------------------------------------------
 
 
 Experiment Information
 ---------------------------------------------------------------------------
 --- Experiment 32780d98-dc11-42ab-ab27-92876fb0934a ---
 Name: PRESS_3T_30TE
 Public: False
 Created: 2023-12-19T15:15:29
 Comment (abbr.): LC-Model basis set clone +2-HG
 PI: Casper Cappelen
 b0: 127.740000
 Peak Search PPM low/high: 0.000000 / 10.000000
 Blend tol. PPM/phase: 0.001500 / 50.000000
 Pulse seq.: 43be13ae-de9a-40a1-9a2d-c872d8bjs100 (PRESS Ideal)
 0 User static parameters: 
 19 Metabolites: 2-hydroxyglutarate, GPC-gp, NAAG-truncated, alanine, aspartate, creatine, gaba, glucose-alpha, glucose-beta, glutamate, glutamine, glutathione-glutamate, lactate, myo-inositol, n-acetylaspartate, phosphocreatine, phosphorylcholine-notrimethyl, scyllo-inositol, taurine
 19 Simulations: (not shown)
 
 Metabolite Formatting Information
 ---------------------------------------------------------------------------
 Name=GPC-gp Abbr=GPC Scale=1.0 Shift=0.0 PPM Start=0.0 PPM End=4.5
 Name=NAAG-truncated Abbr=NAAG Scale=1.0 Shift=0.0 PPM Start=0.0 PPM End=4.5
 Name=alanine Abbr=Ala Scale=1.0 Shift=0.0 PPM Start=0.0 PPM End=4.5
 Name=aspartate Abbr=Asp Scale=1.0 Shift=0.0 PPM Start=0.0 PPM End=4.5
 Name=creatine Abbr=Cr Scale=1.0 Shift=0.1 PPM Start=0.0 PPM End=4.5
 Name=gaba Abbr=GABA Scale=1.0 Shift=0.0 PPM Start=0.0 PPM End=4.5
 Name=glutamate Abbr=Glu Scale=1.0 Shift=0.0 PPM Start=0.0 PPM End=4.5
 Name=glutamine Abbr=Gln Scale=1.0 Shift=0.0 PPM Start=0.0 PPM End=4.5
 Name=glutathione-glutamate Abbr=GSH Scale=1.0 Shift=0.0 PPM Start=0.0 PPM End=4.5
 Name=lactate Abbr=Lac Scale=1.0 Shift=0.0 PPM Start=0.0 PPM End=4.5
 Name=myo-inositol Abbr=mI Scale=1.0 Shift=0.0 PPM Start=0.0 PPM End=4.5
 Name=n-acetylaspartate Abbr=NAA Scale=1.0 Shift=0.0 PPM Start=0.0 PPM End=4.5
 Name=phosphocreatine Abbr=PCr Scale=1.0 Shift=0.0 PPM Start=0.0 PPM End=4.5
 Name=phosphorylcholine-notrimethyl Abbr=PCho Scale=1.0 Shift=0.0 PPM Start=0.0 PPM End=4.5
 Name=taurine Abbr=Tau Scale=1.0 Shift=0.0 PPM Start=0.0 PPM End=4.5
 Name=glucose-alpha+glucose-beta Abbr=Glc Scale=1.0 Shift=0.0 PPM Start=0.0 PPM End=4.5
   Mixture of [metab*scale] = glucose-alpha*1.000000 + glucose-beta*1.000000
 
 ===========================================================================
 This LCModel format RAW file was created using the 
 Vespa-Simulation spectral simulation program using 
 the following settings and parameters 
 
 Sweep Width = 574.83 Hz 
 Vector Size = 1024 points 
 Apodization = 10.0 Hz Gaussian broadening
 B0 Field    = 127.74 MHz 
 Ref Singlet = False
  
 $NMID ID='GPC'
 FMTDAT='(2E16.6)'
 VOLUME=1.0
 TRAMP=1.0
 $END
    4.833898E+00    2.092854E-03
    1.470999E+00    4.527103E+00
   -3.633591E+00    2.655574E+00
   -3.323404E+00   -2.357574E+00
    9.823475E-01   -3.373047E+00
    2.849080E+00   -2.020269E-01
    9.690253E-01    1.923037E+00
   -8.435626E-01    1.205282E+00
   -9.280571E-01    1.286522E-01
   -7.829226E-01   -2.691428E-01
   -5.672165E-01   -1.002189E+00
    7.795705E-01   -1.358786E+00
    1.917438E+00    2.073436E-01
    5.552226E-01    2.126846E+00
   -1.959263E+00    1.324671E+00
   -1.935799E+00   -1.470740E+00
    7.790730E-01   -2.274441E+00
    2.295230E+00    3.173084E-02
    6.283448E-01    2.022853E+00
   -1.538679E+00    1.091705E+00
   -1.301051E+00   -9.573829E-01
    3.993470E-01   -1.257060E+00
    1.011473E+00   -3.511299E-02
    2.843758E-01    6.501348E-01
   -2.706520E-01    3.339247E-01
   -2.135353E-01    4.006757E-02
   -2.232719E-01    1.501808E-02
   -2.758827E-01   -2.574286E-01
    1.576782E-01   -4.979712E-01
    6.301312E-01   -3.299426E-02
    2.577172E-01    6.495757E-01
   -5.624756E-01    4.607915E-01
   -6.000095E-01   -3.977992E-01
    1.969382E-01   -6.538478E-01
    6.226422E-01    2.282525E-03
    1.522960E-01    5.245463E-01
   -3.882454E-01    2.472836E-01
   -2.789992E-01   -2.446911E-01
    1.199901E-01   -2.572070E-01
    2.002614E-01    3.079708E-02
    1.723916E-02    1.293329E-01
   -6.322606E-02    2.826340E-02
   -1.308586E-02   -1.483009E-02
   -1.032685E-02    1.477712E-02
   -4.278445E-02   -1.353169E-02
    8.882250E-04   -6.200137E-02
    6.826949E-02   -1.935181E-02
    3.933782E-02    6.195107E-02
   -4.662280E-02    5.345252E-02
   -5.911113E-02   -2.729760E-02
    8.737666E-03   -5.658629E-02
    4.812945E-02   -5.711864E-03
    1.458874E-02    3.681271E-02
   -2.548366E-02    1.813774E-02
   -1.772438E-02   -1.609233E-02
    9.476656E-03   -1.511756E-02
    1.189623E-02    5.523504E-03
   -3.542272E-03    9.106368E-03
   -7.188357E-03   -2.670003E-03
    2.177939E-03   -6.102378E-03
    5.544022E-03    1.624377E-03
   -8.649623E-04    5.153233E-03
   -4.657585E-03    2.709459E-05
   -8.747648E-04   -3.934581E-03
    3.006628E-03   -1.498812E-03
    1.785309E-03    1.995748E-03
   -1.063935E-03    1.714526E-03
   -1.357293E-03   -3.571815E-04
   -3.550236E-05   -8.481177E-04
    3.457112E-04   -1.033307E-04
   -8.714073E-05   -9.521684E-06
    1.308190E-04   -4.131232E-04
    7.309813E-04    4.573954E-06
    3.111403E-04    9.160036E-04
   -8.950710E-04    7.079630E-04
   -1.062126E-03   -6.626043E-04
    2.757644E-04   -1.271011E-03
    1.280386E-03   -1.680660E-04
    5.637219E-04    1.094713E-03
   -7.689395E-04    8.285394E-04
   -9.225932E-04   -3.865682E-04
    3.297820E-05   -8.530233E-04
    6.645337E-04   -2.277216E-04
    3.653687E-04    4.207489E-04
   -1.841249E-04    3.844880E-04
   -3.154806E-04   -3.821663E-07
   -1.087758E-04   -2.006401E-04
    8.057529E-05   -1.448162E-04
    1.254675E-04   -1.533436E-05
    7.284005E-05    7.556388E-05
   -1.870656E-05    9.156928E-05
   -8.056306E-05    2.810220E-05
   -5.639148E-05   -5.285063E-05
    2.084511E-05   -6.527123E-05
    5.891288E-05   -6.480713E-06
    2.450853E-05    4.364900E-05
   -2.563340E-05    3.245098E-05
   -3.209641E-05   -9.437605E-06
   -2.408259E-06   -2.640213E-05
    1.837927E-05   -9.216599E-06
    1.158241E-05    1.040672E-05
   -3.964901E-06    1.076931E-05
   -8.189250E-06    3.271114E-07
   -2.506954E-06   -5.060934E-06
    2.241396E-06   -3.013748E-06
    2.448588E-06    1.937605E-07
    9.567434E-07    1.395983E-06
   -3.128190E-07    1.321464E-06
   -1.137683E-06    5.170078E-07
   -9.779670E-07   -6.723976E-07
    1.538739E-07   -1.085058E-06
    9.321655E-07   -2.646535E-07
    5.117560E-07    6.412675E-07
   -3.235670E-07    5.842108E-07
   -5.223158E-07   -5.707801E-08
   -1.197245E-07   -3.840825E-07
    2.247373E-07   -2.026406E-07
    2.099744E-07    8.450764E-08
    1.536749E-08    1.698886E-07
   -1.100787E-07    7.042936E-08
   -8.764753E-08   -5.158547E-08
    6.597946E-09   -7.935157E-08
    5.830534E-08   -2.074450E-08
    3.199950E-08    3.465737E-08
   -1.474456E-08    3.166565E-08
   -2.491035E-08   -1.279438E-09
   -5.695111E-09   -1.608734E-08
    8.088170E-09   -7.638360E-09
    6.506800E-09    2.315890E-09
    9.769634E-10    4.068937E-09
   -1.574168E-09    2.229335E-09
   -2.151271E-09    3.069681E-10
   -1.375212E-09   -1.429946E-09
    5.748886E-10   -1.729347E-09
    1.600066E-09   -1.210057E-10
    5.492257E-10    1.229397E-09
   -8.045212E-10    7.222053E-10
   -7.106754E-10   -4.374536E-10
    1.738962E-10   -5.966582E-10
    4.472078E-10    1.475209E-11
    6.193031E-11    3.053693E-10
   -1.918829E-10    8.420414E-11
   -7.681769E-11   -1.116947E-10
    6.095382E-11   -5.745836E-11
    3.677218E-11    3.235912E-11
   -1.842196E-11    1.993527E-11
   -8.564072E-12   -1.298221E-11
    1.163766E-11   -2.287881E-12
   -1.457352E-13    1.161514E-11
   -1.144096E-11   -1.944340E-13
   -8.633873E-13   -1.056187E-11
    8.994178E-12   -2.107115E-12
    3.007789E-12    7.031507E-12
   -5.027461E-12    3.376691E-12
   -3.256537E-12   -3.262826E-12
    1.890651E-12   -2.807383E-12
    2.211220E-12    9.415077E-13
   -3.597970E-13    1.614493E-12
   -1.104725E-12   -5.065742E-14
   -8.298279E-14   -7.149528E-13
    4.410020E-13   -1.190296E-13
    1.095610E-13    2.606149E-13
   -1.476995E-13    8.428059E-14
   -5.739489E-14   -7.998099E-14
    4.125561E-14   -3.447166E-14
    1.710017E-14    2.066098E-14
   -1.104587E-14    5.294577E-15
    1.565850E-15   -7.591676E-15
    7.030241E-15    4.478882E-15
   -4.667016E-15    7.278240E-15
   -7.230056E-15   -3.371871E-15
    1.633134E-15   -6.531119E-15
    5.302784E-15    1.362739E-16
    8.104162E-16    3.864833E-15
   -2.526724E-15    1.195506E-15
   -1.172642E-15   -1.479035E-15
    7.750266E-16   -9.392933E-16
    6.558023E-16    3.687681E-16
   -1.700785E-16    4.152796E-16
   -2.494773E-16   -8.924939E-17
    6.088359E-17   -1.514591E-16
    9.915480E-17    4.836583E-17
   -3.730196E-17    7.112925E-17
   -5.332415E-17   -2.556116E-17
    1.520063E-17   -3.926915E-17
    2.734890E-17    8.027797E-18
   -4.249250E-18    1.787932E-17
   -1.123544E-17   -2.888777E-18
    2.659289E-18   -7.195714E-18
    5.052133E-18    2.596970E-18
   -2.267976E-18    3.978642E-18
   -3.329020E-18   -1.657611E-18
    9.500895E-19   -2.747037E-18
    2.126256E-18    3.395184E-19
    6.594267E-20    1.502832E-18
   -9.533707E-19    2.554423E-19
   -2.822191E-19   -5.330355E-19
    2.555442E-19   -2.197316E-19
    1.306789E-19    1.006819E-19
   -3.203671E-20    5.369558E-20
   -4.071832E-21   -1.279811E-20
    1.490867E-20    1.879890E-20
   -2.290793E-20    2.148170E-20
   -2.501003E-20   -1.735492E-20
    9.090562E-21   -2.398035E-20
    1.971576E-20    2.046935E-21
    2.350253E-21    1.420615E-20
   -9.016357E-21    4.216516E-21
