 Vespa-Simulation Mixed Metabolite Output
 This file was generated by Vespa-Simulation. You can learn about and download Vespa here:
https://github.com/vespa-mrs/vespa/tree/main/vespa

 
 Output Path/Filename = /home/stud/casperc/bhome/Project1(DeepFit)/DeepFit-data-generation/Initial_spectra_linewidth_10_TE30_1024p
 Output Loop Values = (1,1,1)  ( Loop 1 = 15, Loop 2 = 15, Loop3 Inactive )
 Output Comment
 ---------------------------------------------------------------------------
 
 
 Experiment Information
 ---------------------------------------------------------------------------
 --- Experiment 32780d98-dc11-42ab-ab27-92876fb0934a ---
 Name: PRESS_3T_30TE
 Public: False
 Created: 2023-12-19T15:15:29
 Comment (abbr.): LC-Model basis set clone +2-HG
 PI: Casper Cappelen
 b0: 127.740000
 Peak Search PPM low/high: 0.000000 / 10.000000
 Blend tol. PPM/phase: 0.001500 / 50.000000
 Pulse seq.: 43be13ae-de9a-40a1-9a2d-c872d8bjs100 (PRESS Ideal)
 0 User static parameters: 
 19 Metabolites: 2-hydroxyglutarate, GPC-gp, NAAG-truncated, alanine, aspartate, creatine, gaba, glucose-alpha, glucose-beta, glutamate, glutamine, glutathione-glutamate, lactate, myo-inositol, n-acetylaspartate, phosphocreatine, phosphorylcholine-notrimethyl, scyllo-inositol, taurine
 19 Simulations: (not shown)
 
 Metabolite Formatting Information
 ---------------------------------------------------------------------------
 Name=GPC-gp Abbr=GPC Scale=1.0 Shift=0.0 PPM Start=0.0 PPM End=4.5
 Name=NAAG-truncated Abbr=NAAG Scale=1.0 Shift=0.0 PPM Start=0.0 PPM End=4.5
 Name=alanine Abbr=Ala Scale=1.0 Shift=0.0 PPM Start=0.0 PPM End=4.5
 Name=aspartate Abbr=Asp Scale=1.0 Shift=0.0 PPM Start=0.0 PPM End=4.5
 Name=creatine Abbr=Cr Scale=1.0 Shift=0.1 PPM Start=0.0 PPM End=4.5
 Name=gaba Abbr=GABA Scale=1.0 Shift=0.0 PPM Start=0.0 PPM End=4.5
 Name=glutamate Abbr=Glu Scale=1.0 Shift=0.0 PPM Start=0.0 PPM End=4.5
 Name=glutamine Abbr=Gln Scale=1.0 Shift=0.0 PPM Start=0.0 PPM End=4.5
 Name=glutathione-glutamate Abbr=GSH Scale=1.0 Shift=0.0 PPM Start=0.0 PPM End=4.5
 Name=lactate Abbr=Lac Scale=1.0 Shift=0.0 PPM Start=0.0 PPM End=4.5
 Name=myo-inositol Abbr=mI Scale=1.0 Shift=0.0 PPM Start=0.0 PPM End=4.5
 Name=n-acetylaspartate Abbr=NAA Scale=1.0 Shift=0.0 PPM Start=0.0 PPM End=4.5
 Name=phosphocreatine Abbr=PCr Scale=1.0 Shift=0.0 PPM Start=0.0 PPM End=4.5
 Name=phosphorylcholine-notrimethyl Abbr=PCho Scale=1.0 Shift=0.0 PPM Start=0.0 PPM End=4.5
 Name=taurine Abbr=Tau Scale=1.0 Shift=0.0 PPM Start=0.0 PPM End=4.5
 Name=glucose-alpha+glucose-beta Abbr=Glc Scale=1.0 Shift=0.0 PPM Start=0.0 PPM End=4.5
   Mixture of [metab*scale] = glucose-alpha*1.000000 + glucose-beta*1.000000
 
 ===========================================================================
 This LCModel format RAW file was created using the 
 Vespa-Simulation spectral simulation program using 
 the following settings and parameters 
 
 Sweep Width = 574.83 Hz 
 Vector Size = 1024 points 
 Apodization = 10.0 Hz Gaussian broadening
 B0 Field    = 127.74 MHz 
 Ref Singlet = False
  
 This data has been FFTd to be in the FREQUENCY domain
 
 $NMID ID='GPC'
 FMTDAT='(2E16.6)'
 VOLUME=1.0
 TRAMP=1.0
 $END
    2.400132E+00    3.423828E+00
    2.399997E+00    3.446842E+00
    2.399860E+00    3.470069E+00
    2.399722E+00    3.493514E+00
    2.399581E+00    3.517179E+00
    2.399439E+00    3.541068E+00
    2.399295E+00    3.565186E+00
    2.399149E+00    3.589535E+00
    2.399002E+00    3.614119E+00
    2.398852E+00    3.638943E+00
    2.398700E+00    3.664011E+00
    2.398546E+00    3.689327E+00
    2.398389E+00    3.714895E+00
    2.398230E+00    3.740720E+00
    2.398069E+00    3.766806E+00
    2.397905E+00    3.793158E+00
    2.397738E+00    3.819780E+00
    2.397569E+00    3.846679E+00
    2.397397E+00    3.873858E+00
    2.397222E+00    3.901322E+00
    2.397044E+00    3.929078E+00
    2.396863E+00    3.957131E+00
    2.396680E+00    3.985485E+00
    2.396493E+00    4.014147E+00
    2.396304E+00    4.043123E+00
    2.396111E+00    4.072418E+00
    2.395916E+00    4.102038E+00
    2.395717E+00    4.131990E+00
    2.395516E+00    4.162280E+00
    2.395311E+00    4.192915E+00
    2.395103E+00    4.223901E+00
    2.394891E+00    4.255246E+00
    2.394676E+00    4.286956E+00
    2.394458E+00    4.319038E+00
    2.394236E+00    4.351501E+00
    2.394011E+00    4.384351E+00
    2.393782E+00    4.417598E+00
    2.393549E+00    4.451248E+00
    2.393312E+00    4.485311E+00
    2.393072E+00    4.519795E+00
    2.392827E+00    4.554708E+00
    2.392579E+00    4.590061E+00
    2.392326E+00    4.625862E+00
    2.392069E+00    4.662120E+00
    2.391808E+00    4.698847E+00
    2.391542E+00    4.736052E+00
    2.391272E+00    4.773745E+00
    2.390997E+00    4.811938E+00
    2.390717E+00    4.850641E+00
    2.390432E+00    4.889867E+00
    2.390143E+00    4.929627E+00
    2.389848E+00    4.969933E+00
    2.389547E+00    5.010799E+00
    2.389242E+00    5.052236E+00
    2.388930E+00    5.094260E+00
    2.388613E+00    5.136883E+00
    2.388290E+00    5.180121E+00
    2.387961E+00    5.223987E+00
    2.387625E+00    5.268499E+00
    2.387284E+00    5.313671E+00
    2.386936E+00    5.359520E+00
    2.386582E+00    5.406064E+00
    2.386221E+00    5.453319E+00
    2.385853E+00    5.501304E+00
    2.385479E+00    5.550038E+00
    2.385098E+00    5.599540E+00
    2.384710E+00    5.649831E+00
    2.384315E+00    5.700932E+00
    2.383912E+00    5.752865E+00
    2.383502E+00    5.805651E+00
    2.383083E+00    5.859316E+00
    2.382657E+00    5.913883E+00
    2.382222E+00    5.969378E+00
    2.381778E+00    6.025827E+00
    2.381325E+00    6.083258E+00
    2.380863E+00    6.141700E+00
    2.380392E+00    6.201183E+00
    2.379911E+00    6.261738E+00
    2.379421E+00    6.323397E+00
    2.378920E+00    6.386195E+00
    2.378410E+00    6.450166E+00
    2.377890E+00    6.515349E+00
    2.377360E+00    6.581781E+00
    2.376820E+00    6.649503E+00
    2.376269E+00    6.718557E+00
    2.375709E+00    6.788987E+00
    2.375138E+00    6.860840E+00
    2.374557E+00    6.934164E+00
    2.373965E+00    7.009011E+00
    2.373363E+00    7.085433E+00
    2.372751E+00    7.163488E+00
    2.372128E+00    7.243235E+00
    2.371495E+00    7.324736E+00
    2.370852E+00    7.408059E+00
    2.370199E+00    7.493272E+00
    2.369537E+00    7.580451E+00
    2.368865E+00    7.669673E+00
    2.368185E+00    7.761023E+00
    2.367498E+00    7.854589E+00
    2.366804E+00    7.950466E+00
    2.366106E+00    8.048756E+00
    2.365406E+00    8.149567E+00
    2.364708E+00    8.253016E+00
    2.364015E+00    8.359229E+00
    2.363335E+00    8.468342E+00
    2.362677E+00    8.580502E+00
    2.362052E+00    8.695869E+00
    2.361480E+00    8.814619E+00
    2.360983E+00    8.936940E+00
    2.360597E+00    9.063039E+00
    2.360369E+00    9.193142E+00
    2.360361E+00    9.327493E+00
    2.360659E+00    9.466352E+00
    2.361372E+00    9.609999E+00
    2.362643E+00    9.758725E+00
    2.364649E+00    9.912832E+00
    2.367611E+00    1.007262E+01
    2.371791E+00    1.023840E+01
    2.377496E+00    1.041044E+01
    2.385075E+00    1.058899E+01
    2.394911E+00    1.077427E+01
    2.407409E+00    1.096644E+01
    2.422981E+00    1.116560E+01
    2.442025E+00    1.137180E+01
    2.464904E+00    1.158503E+01
    2.491924E+00    1.180522E+01
    2.523312E+00    1.203231E+01
    2.559208E+00    1.226623E+01
    2.599660E+00    1.250695E+01
    2.644631E+00    1.275453E+01
    2.694025E+00    1.300912E+01
    2.747715E+00    1.327104E+01
    2.805593E+00    1.354074E+01
    2.867609E+00    1.381883E+01
    2.933816E+00    1.410606E+01
    3.004403E+00    1.440327E+01
    3.079707E+00    1.471136E+01
    3.160207E+00    1.503124E+01
    3.246494E+00    1.536381E+01
    3.339222E+00    1.570992E+01
    3.439052E+00    1.607038E+01
    3.546593E+00    1.644604E+01
    3.662366E+00    1.683784E+01
    3.786792E+00    1.724693E+01
    3.920228E+00    1.767479E+01
    4.063054E+00    1.812338E+01
    4.215822E+00    1.859525E+01
    4.379447E+00    1.909364E+01
    4.555463E+00    1.962250E+01
    4.746303E+00    2.018651E+01
    4.955609E+00    2.079096E+01
    5.188557E+00    2.144157E+01
    5.452176E+00    2.214427E+01
    5.755641E+00    2.290479E+01
    6.110536E+00    2.372819E+01
    6.531029E+00    2.461830E+01
    7.033950E+00    2.557698E+01
    7.638704E+00    2.660332E+01
    8.366977E+00    2.769270E+01
    9.242173E+00    2.883592E+01
    1.028855E+01    3.001823E+01
    1.153001E+01    3.121863E+01
    1.298862E+01    3.240933E+01
    1.468281E+01    3.355566E+01
    1.662543E+01    3.461638E+01
    1.882184E+01    3.554464E+01
    2.126809E+01    3.628944E+01
    2.394947E+01    3.679772E+01
    2.683962E+01    3.701682E+01
    2.990025E+01    3.689732E+01
    3.308162E+01    3.639590E+01
    3.632382E+01    3.547811E+01
    3.955871E+01    3.412079E+01
    4.271239E+01    3.231393E+01
    4.570822E+01    3.006194E+01
    4.846985E+01    2.738407E+01
    5.092443E+01    2.431428E+01
    5.300559E+01    2.090024E+01
    5.465608E+01    1.720185E+01
    5.583012E+01    1.328925E+01
    5.649521E+01    9.240381E+00
    5.663346E+01    5.138305E+00
    5.624241E+01    1.068260E+00
    5.533520E+01   -2.885371E+00
    5.394018E+01   -6.642141E+00
    5.209994E+01   -1.012853E+01
    4.986958E+01   -1.328070E+01
    4.731449E+01   -1.604691E+01
    4.450751E+01   -1.838931E+01
    4.152580E+01   -2.028514E+01
    3.844741E+01   -2.172708E+01
    3.534793E+01   -2.272277E+01
    3.229740E+01   -2.329352E+01
    2.935765E+01   -2.347237E+01
    2.658031E+01   -2.330154E+01
    2.400559E+01   -2.282964E+01
    2.166180E+01   -2.210873E+01
    1.956562E+01   -2.119161E+01
    1.772299E+01   -2.012935E+01
    1.613045E+01   -1.896931E+01
    1.477678E+01   -1.775366E+01
    1.364478E+01   -1.651843E+01
    1.271300E+01   -1.529304E+01
    1.195736E+01   -1.410018E+01
    1.135259E+01   -1.295604E+01
    1.087349E+01   -1.187074E+01
