 Vespa-Simulation Mixed Metabolite Output
 This file was generated by Vespa-Simulation. You can learn about and download Vespa here:
https://github.com/vespa-mrs/vespa/tree/main/vespa

 
 Output Path/Filename = /home/stud/casperc/bhome/Project1(DeepFit)/DeepFit-data-generation/Initial_spectra_linewidth_10_TE30_1024p
 Output Loop Values = (1,1,1)  ( Loop 1 = 15, Loop 2 = 15, Loop3 Inactive )
 Output Comment
 ---------------------------------------------------------------------------
 
 
 Experiment Information
 ---------------------------------------------------------------------------
 --- Experiment 32780d98-dc11-42ab-ab27-92876fb0934a ---
 Name: PRESS_3T_30TE
 Public: False
 Created: 2023-12-19T15:15:29
 Comment (abbr.): LC-Model basis set clone +2-HG
 PI: Casper Cappelen
 b0: 127.740000
 Peak Search PPM low/high: 0.000000 / 10.000000
 Blend tol. PPM/phase: 0.001500 / 50.000000
 Pulse seq.: 43be13ae-de9a-40a1-9a2d-c872d8bjs100 (PRESS Ideal)
 0 User static parameters: 
 19 Metabolites: 2-hydroxyglutarate, GPC-gp, NAAG-truncated, alanine, aspartate, creatine, gaba, glucose-alpha, glucose-beta, glutamate, glutamine, glutathione-glutamate, lactate, myo-inositol, n-acetylaspartate, phosphocreatine, phosphorylcholine-notrimethyl, scyllo-inositol, taurine
 19 Simulations: (not shown)
 
 Metabolite Formatting Information
 ---------------------------------------------------------------------------
 Name=GPC-gp Abbr=GPC Scale=1.0 Shift=0.0 PPM Start=0.0 PPM End=4.5
 Name=NAAG-truncated Abbr=NAAG Scale=1.0 Shift=0.0 PPM Start=0.0 PPM End=4.5
 Name=alanine Abbr=Ala Scale=1.0 Shift=0.0 PPM Start=0.0 PPM End=4.5
 Name=aspartate Abbr=Asp Scale=1.0 Shift=0.0 PPM Start=0.0 PPM End=4.5
 Name=creatine Abbr=Cr Scale=1.0 Shift=0.1 PPM Start=0.0 PPM End=4.5
 Name=gaba Abbr=GABA Scale=1.0 Shift=0.0 PPM Start=0.0 PPM End=4.5
 Name=glutamate Abbr=Glu Scale=1.0 Shift=0.0 PPM Start=0.0 PPM End=4.5
 Name=glutamine Abbr=Gln Scale=1.0 Shift=0.0 PPM Start=0.0 PPM End=4.5
 Name=glutathione-glutamate Abbr=GSH Scale=1.0 Shift=0.0 PPM Start=0.0 PPM End=4.5
 Name=lactate Abbr=Lac Scale=1.0 Shift=0.0 PPM Start=0.0 PPM End=4.5
 Name=myo-inositol Abbr=mI Scale=1.0 Shift=0.0 PPM Start=0.0 PPM End=4.5
 Name=n-acetylaspartate Abbr=NAA Scale=1.0 Shift=0.0 PPM Start=0.0 PPM End=4.5
 Name=phosphocreatine Abbr=PCr Scale=1.0 Shift=0.0 PPM Start=0.0 PPM End=4.5
 Name=phosphorylcholine-notrimethyl Abbr=PCho Scale=1.0 Shift=0.0 PPM Start=0.0 PPM End=4.5
 Name=taurine Abbr=Tau Scale=1.0 Shift=0.0 PPM Start=0.0 PPM End=4.5
 Name=glucose-alpha+glucose-beta Abbr=Glc Scale=1.0 Shift=0.0 PPM Start=0.0 PPM End=4.5
   Mixture of [metab*scale] = glucose-alpha*1.000000 + glucose-beta*1.000000
 
 ===========================================================================
 This LCModel format RAW file was created using the 
 Vespa-Simulation spectral simulation program using 
 the following settings and parameters 
 
 Sweep Width = 574.83 Hz 
 Vector Size = 1024 points 
 Apodization = 10.0 Hz Gaussian broadening
 B0 Field    = 127.74 MHz 
 Ref Singlet = False
  
 $NMID ID='GSH'
 FMTDAT='(2E16.6)'
 VOLUME=1.0
 TRAMP=1.0
 $END
    3.491169E+00    8.547928E-02
   -2.552851E+00    2.174149E-01
    1.813077E+00    9.467260E-01
   -2.241576E+00   -1.161848E+00
    1.564829E+00    2.066242E-01
   -2.993644E-01   -2.942735E-01
    3.716486E-01    5.403362E-01
   -5.142852E-01    3.998337E-01
   -1.933375E-01   -9.493579E-01
    2.284612E-01    6.216924E-01
    3.543026E-01   -8.427756E-01
   -2.514350E-01    1.244976E+00
    3.922960E-02   -8.688975E-01
   -3.700166E-01    5.148156E-01
    4.307569E-01   -6.089191E-01
   -1.036127E-01    4.290665E-01
    5.783152E-02   -7.768443E-02
   -1.020172E-01    7.126207E-02
   -9.253130E-02   -1.204880E-01
    2.076644E-01    8.932915E-03
   -1.520453E-01    1.913723E-03
    1.516290E-01    7.213484E-02
   -1.620896E-01   -6.296805E-02
    1.024143E-01    3.941720E-02
   -5.376911E-02   -3.901111E-02
    2.314427E-02    1.380674E-02
    1.040556E-02    9.947254E-03
   -1.967292E-02   -2.731745E-02
    2.419090E-02    5.533706E-02
   -3.703867E-02   -6.586489E-02
    3.511986E-02    5.973225E-02
   -2.801978E-02   -6.112228E-02
    3.374980E-02    6.629013E-02
   -5.021580E-02   -6.538921E-02
    6.245161E-02    5.544298E-02
   -5.698449E-02   -5.671585E-02
    6.210901E-02    8.308146E-02
   -8.869075E-02   -8.899387E-02
    7.836214E-02    6.858367E-02
   -4.307928E-02   -8.808278E-02
    5.789543E-02    1.126383E-01
   -6.795748E-02   -6.959969E-02
    1.627234E-02    3.963453E-02
   -6.523347E-03   -6.313416E-02
    5.238908E-02    2.849732E-02
   -3.680704E-02    4.079817E-02
    1.156754E-02   -2.979895E-02
   -6.947879E-02    1.717511E-02
    1.027515E-01   -7.092287E-02
   -6.900623E-02    7.153238E-02
    8.883959E-02   -1.499599E-02
   -1.323576E-01    2.201674E-02
    9.553000E-02   -3.903062E-02
   -5.882978E-02   -1.156276E-02
    7.830641E-02    3.252637E-02
   -5.654224E-02    2.839377E-03
   -4.099267E-04    2.933211E-03
    2.117993E-03   -2.357090E-02
    6.753666E-03   -1.063283E-02
    2.532102E-02    3.748529E-02
   -3.257912E-02   -2.294667E-02
    4.785556E-03    3.139229E-02
   -4.853172E-03   -5.555625E-02
    1.426381E-02    4.351568E-02
    5.344546E-03   -2.654294E-02
   -1.658926E-02    3.316068E-02
    4.286108E-03   -2.705870E-02
   -4.512828E-03    6.185610E-03
    1.217900E-02   -3.106920E-03
   -2.763328E-03    6.061209E-03
   -6.371988E-03    3.324098E-03
    2.853705E-03   -7.084207E-03
   -4.228022E-03    2.812615E-04
    1.065590E-02    2.051621E-04
   -8.657146E-03    2.645131E-03
    4.577169E-03    1.143796E-03
   -5.907205E-03   -3.930014E-03
    5.281574E-03    1.505750E-03
   -1.372937E-03   -1.170892E-03
    5.956972E-04    2.712760E-03
   -1.312958E-03   -1.338901E-03
   -8.847974E-05   -3.083119E-04
    8.748451E-04   -1.867471E-04
    6.905537E-05    1.237559E-04
   -2.012458E-04    8.377052E-04
   -2.808667E-04   -7.166247E-04
   -9.167852E-05    2.108862E-04
    4.516781E-04   -4.049799E-04
   -1.735959E-04    4.500420E-04
    9.016180E-05   -8.154325E-05
   -2.617467E-04    8.888861E-06
    1.601724E-04   -1.188614E-04
   -1.746398E-06    1.891305E-05
    4.328612E-05    5.962607E-05
   -5.419218E-05    1.381079E-05
   -2.085808E-05   -3.016896E-05
    2.228057E-05   -1.232495E-05
    1.141507E-05   -3.819929E-06
    2.869870E-06    2.733354E-05
   -1.336379E-05   -1.031795E-05
   -2.966537E-06    2.273427E-06
    5.785226E-06   -1.135844E-05
    2.124732E-06    8.080869E-06
    1.801597E-07   -6.434931E-07
   -3.341700E-06    2.085312E-06
    4.536340E-07   -3.156055E-06
    6.822055E-07    6.319371E-07
    6.244816E-07   -1.842372E-07
   -3.776090E-07    1.052840E-06
   -2.766343E-07   -6.750564E-07
   -2.042262E-08    2.344158E-07
    2.237492E-07   -3.789087E-07
   -8.833507E-08    3.703739E-07
    8.106268E-08   -1.993052E-07
   -1.364219E-07    1.396252E-07
    1.232490E-07   -1.227734E-07
   -9.388999E-08    9.216903E-08
    7.209863E-08   -6.694461E-08
   -5.945051E-08    5.016078E-08
    5.268330E-08   -4.712958E-08
   -4.026109E-08    4.779868E-08
    3.069757E-08   -4.040152E-08
   -2.905547E-08    3.359885E-08
    2.651263E-08   -2.959641E-08
   -2.269814E-08    2.383582E-08
    1.887064E-08   -1.816570E-08
   -1.416907E-08    1.211065E-08
    1.133738E-08   -6.841086E-09
   -8.154593E-09    5.496063E-09
    2.735648E-09   -4.064228E-09
   -1.424723E-10    1.379379E-09
   -3.692352E-12   -1.942591E-09
    2.000659E-09    3.593608E-09
   -3.267889E-09   -2.716162E-09
    1.816602E-09    2.317944E-09
   -1.128360E-09   -3.411266E-09
    1.540059E-09    3.014214E-09
   -6.955645E-10   -1.770539E-09
   -2.728950E-10    1.663457E-09
    5.576798E-11   -1.495199E-09
    2.312911E-11    5.971259E-10
    3.567707E-10   -1.971575E-10
   -2.485454E-10    2.607004E-10
   -5.832853E-11   -2.092936E-11
    1.141745E-11   -1.893398E-10
    2.101589E-11    7.343652E-11
    1.194882E-10   -1.402318E-11
   -1.322534E-10    7.577855E-11
    5.349876E-11   -3.388926E-11
   -6.001197E-11   -3.445445E-11
    7.005153E-11    1.795750E-11
   -2.546025E-11   -5.202567E-12
    4.776387E-12    2.609092E-11
   -1.274279E-11   -2.213738E-11
    4.010464E-12    4.626264E-12
    6.734699E-12   -5.027291E-12
   -2.193974E-12    6.632395E-12
   -7.571170E-13    7.756725E-14
   -2.153983E-12   -2.102447E-12
    1.314245E-12   -2.051191E-13
    1.099614E-12   -4.222052E-13
   -5.937455E-13    1.435996E-12
    9.893282E-15   -4.288544E-13
   -6.353949E-13   -9.161235E-14
    6.294551E-13   -2.727651E-13
   -1.530834E-13    1.500578E-13
    1.452436E-13    1.318171E-13
   -2.122160E-13   -3.664954E-14
    5.947572E-14   -4.329589E-14
    7.151266E-15   -2.889435E-14
    3.359263E-14    2.779060E-14
   -1.790784E-14    1.894380E-14
   -1.185802E-14   -1.060995E-14
    8.464893E-16   -3.112790E-15
    6.445489E-15   -7.263829E-15
    1.682752E-15    9.130759E-15
   -1.911160E-15   -2.004759E-15
   -2.003731E-15    1.673459E-15
    7.632287E-16   -3.092558E-15
    5.951346E-16    1.244612E-15
    2.839423E-16   -1.837459E-16
   -4.180231E-16    6.020199E-16
   -1.211077E-16   -4.256999E-16
    7.477307E-17    1.280264E-17
    8.386063E-17   -5.193511E-17
    1.456609E-17    1.083174E-16
   -5.487446E-17   -1.701892E-17
    1.305492E-18   -6.194216E-18
    1.360994E-18   -2.056677E-17
    1.510104E-17    1.099135E-17
   -5.867926E-18    2.037946E-18
   -1.151688E-18    2.290571E-18
   -1.980288E-18   -3.591562E-18
    1.945061E-18    2.245361E-19
    1.355077E-19    2.521636E-20
   -1.340743E-20    7.507338E-19
   -3.915693E-19   -3.118905E-19
    8.225354E-20    7.943455E-21
    4.162354E-20   -1.399647E-19
    4.949581E-20    1.362515E-19
   -3.852852E-20   -5.030934E-20
   -1.175455E-21    3.924553E-20
   -2.864281E-21   -4.070031E-20
    8.431808E-21    2.399897E-20
   -4.335446E-21   -1.284392E-20
    2.665748E-21    9.138697E-21
   -3.189395E-21   -6.207566E-21
    3.142393E-21    3.638744E-21
