 Vespa-Simulation Mixed Metabolite Output
 This file was generated by Vespa-Simulation. You can learn about and download Vespa here:
https://github.com/vespa-mrs/vespa/tree/main/vespa

 
 Output Path/Filename = /home/stud/casperc/bhome/Project1(DeepFit)/DeepFit-data-generation/Initial_spectra_linewidth_10_TE30_1024p
 Output Loop Values = (1,1,1)  ( Loop 1 = 15, Loop 2 = 15, Loop3 Inactive )
 Output Comment
 ---------------------------------------------------------------------------
 
 
 Experiment Information
 ---------------------------------------------------------------------------
 --- Experiment 32780d98-dc11-42ab-ab27-92876fb0934a ---
 Name: PRESS_3T_30TE
 Public: False
 Created: 2023-12-19T15:15:29
 Comment (abbr.): LC-Model basis set clone +2-HG
 PI: Casper Cappelen
 b0: 127.740000
 Peak Search PPM low/high: 0.000000 / 10.000000
 Blend tol. PPM/phase: 0.001500 / 50.000000
 Pulse seq.: 43be13ae-de9a-40a1-9a2d-c872d8bjs100 (PRESS Ideal)
 0 User static parameters: 
 19 Metabolites: 2-hydroxyglutarate, GPC-gp, NAAG-truncated, alanine, aspartate, creatine, gaba, glucose-alpha, glucose-beta, glutamate, glutamine, glutathione-glutamate, lactate, myo-inositol, n-acetylaspartate, phosphocreatine, phosphorylcholine-notrimethyl, scyllo-inositol, taurine
 19 Simulations: (not shown)
 
 Metabolite Formatting Information
 ---------------------------------------------------------------------------
 Name=GPC-gp Abbr=GPC Scale=1.0 Shift=0.0 PPM Start=0.0 PPM End=4.5
 Name=NAAG-truncated Abbr=NAAG Scale=1.0 Shift=0.0 PPM Start=0.0 PPM End=4.5
 Name=alanine Abbr=Ala Scale=1.0 Shift=0.0 PPM Start=0.0 PPM End=4.5
 Name=aspartate Abbr=Asp Scale=1.0 Shift=0.0 PPM Start=0.0 PPM End=4.5
 Name=creatine Abbr=Cr Scale=1.0 Shift=0.1 PPM Start=0.0 PPM End=4.5
 Name=gaba Abbr=GABA Scale=1.0 Shift=0.0 PPM Start=0.0 PPM End=4.5
 Name=glutamate Abbr=Glu Scale=1.0 Shift=0.0 PPM Start=0.0 PPM End=4.5
 Name=glutamine Abbr=Gln Scale=1.0 Shift=0.0 PPM Start=0.0 PPM End=4.5
 Name=glutathione-glutamate Abbr=GSH Scale=1.0 Shift=0.0 PPM Start=0.0 PPM End=4.5
 Name=lactate Abbr=Lac Scale=1.0 Shift=0.0 PPM Start=0.0 PPM End=4.5
 Name=myo-inositol Abbr=mI Scale=1.0 Shift=0.0 PPM Start=0.0 PPM End=4.5
 Name=n-acetylaspartate Abbr=NAA Scale=1.0 Shift=0.0 PPM Start=0.0 PPM End=4.5
 Name=phosphocreatine Abbr=PCr Scale=1.0 Shift=0.0 PPM Start=0.0 PPM End=4.5
 Name=phosphorylcholine-notrimethyl Abbr=PCho Scale=1.0 Shift=0.0 PPM Start=0.0 PPM End=4.5
 Name=taurine Abbr=Tau Scale=1.0 Shift=0.0 PPM Start=0.0 PPM End=4.5
 Name=glucose-alpha+glucose-beta Abbr=Glc Scale=1.0 Shift=0.0 PPM Start=0.0 PPM End=4.5
   Mixture of [metab*scale] = glucose-alpha*1.000000 + glucose-beta*1.000000
 
 ===========================================================================
 This LCModel format RAW file was created using the 
 Vespa-Simulation spectral simulation program using 
 the following settings and parameters 
 
 Sweep Width = 574.83 Hz 
 Vector Size = 1024 points 
 Apodization = 10.0 Hz Gaussian broadening
 B0 Field    = 127.74 MHz 
 Ref Singlet = False
  
 This data has been FFTd to be in the FREQUENCY domain
 
 $NMID ID='GSH'
 FMTDAT='(2E16.6)'
 VOLUME=1.0
 TRAMP=1.0
 $END
    1.745963E+00    3.912393E-01
    1.745924E+00    3.985135E-01
    1.745886E+00    4.058094E-01
    1.745850E+00    4.131274E-01
    1.745816E+00    4.204681E-01
    1.745783E+00    4.278317E-01
    1.745753E+00    4.352188E-01
    1.745724E+00    4.426297E-01
    1.745697E+00    4.500647E-01
    1.745673E+00    4.575244E-01
    1.745650E+00    4.650091E-01
    1.745629E+00    4.725192E-01
    1.745610E+00    4.800552E-01
    1.745593E+00    4.876176E-01
    1.745578E+00    4.952069E-01
    1.745565E+00    5.028237E-01
    1.745554E+00    5.104686E-01
    1.745544E+00    5.181423E-01
    1.745536E+00    5.258454E-01
    1.745531E+00    5.335785E-01
    1.745527E+00    5.413423E-01
    1.745526E+00    5.491374E-01
    1.745527E+00    5.569643E-01
    1.745531E+00    5.648237E-01
    1.745537E+00    5.727160E-01
    1.745546E+00    5.806418E-01
    1.745558E+00    5.886015E-01
    1.745573E+00    5.965959E-01
    1.745590E+00    6.046255E-01
    1.745610E+00    6.126909E-01
    1.745633E+00    6.207929E-01
    1.745659E+00    6.289322E-01
    1.745687E+00    6.371096E-01
    1.745718E+00    6.453259E-01
    1.745752E+00    6.535820E-01
    1.745790E+00    6.618786E-01
    1.745830E+00    6.702166E-01
    1.745874E+00    6.785968E-01
    1.745921E+00    6.870199E-01
    1.745972E+00    6.954867E-01
    1.746027E+00    7.039980E-01
    1.746086E+00    7.125544E-01
    1.746148E+00    7.211569E-01
    1.746215E+00    7.298062E-01
    1.746286E+00    7.385032E-01
    1.746361E+00    7.472487E-01
    1.746440E+00    7.560439E-01
    1.746523E+00    7.648896E-01
    1.746610E+00    7.737869E-01
    1.746702E+00    7.827369E-01
    1.746797E+00    7.917407E-01
    1.746898E+00    8.007994E-01
    1.747003E+00    8.099143E-01
    1.747112E+00    8.190864E-01
    1.747227E+00    8.283169E-01
    1.747347E+00    8.376070E-01
    1.747472E+00    8.469579E-01
    1.747603E+00    8.563708E-01
    1.747739E+00    8.658469E-01
    1.747882E+00    8.753873E-01
    1.748030E+00    8.849934E-01
    1.748185E+00    8.946663E-01
    1.748346E+00    9.044075E-01
    1.748513E+00    9.142182E-01
    1.748686E+00    9.240999E-01
    1.748866E+00    9.340540E-01
    1.749053E+00    9.440822E-01
    1.749246E+00    9.541860E-01
    1.749445E+00    9.643670E-01
    1.749652E+00    9.746270E-01
    1.749865E+00    9.849678E-01
    1.750085E+00    9.953910E-01
    1.750312E+00    1.005898E+00
    1.750546E+00    1.016492E+00
    1.750787E+00    1.027174E+00
    1.751035E+00    1.037946E+00
    1.751290E+00    1.048809E+00
    1.751551E+00    1.059767E+00
    1.751818E+00    1.070822E+00
    1.752091E+00    1.081975E+00
    1.752369E+00    1.093231E+00
    1.752651E+00    1.104591E+00
    1.752937E+00    1.116059E+00
    1.753226E+00    1.127638E+00
    1.753517E+00    1.139334E+00
    1.753809E+00    1.151151E+00
    1.754103E+00    1.163095E+00
    1.754398E+00    1.175170E+00
    1.754694E+00    1.187385E+00
    1.754994E+00    1.199746E+00
    1.755300E+00    1.212261E+00
    1.755615E+00    1.224937E+00
    1.755944E+00    1.237783E+00
    1.756293E+00    1.250806E+00
    1.756671E+00    1.264013E+00
    1.757086E+00    1.277408E+00
    1.757548E+00    1.290996E+00
    1.758067E+00    1.304779E+00
    1.758655E+00    1.318755E+00
    1.759321E+00    1.332923E+00
    1.760074E+00    1.347277E+00
    1.760921E+00    1.361810E+00
    1.761867E+00    1.376516E+00
    1.762914E+00    1.391384E+00
    1.764061E+00    1.406405E+00
    1.765303E+00    1.421571E+00
    1.766635E+00    1.436874E+00
    1.768047E+00    1.452308E+00
    1.769526E+00    1.467870E+00
    1.771060E+00    1.483559E+00
    1.772632E+00    1.499378E+00
    1.774227E+00    1.515332E+00
    1.775828E+00    1.531432E+00
    1.777420E+00    1.547692E+00
    1.778989E+00    1.564130E+00
    1.780522E+00    1.580767E+00
    1.782010E+00    1.597629E+00
    1.783447E+00    1.614745E+00
    1.784832E+00    1.632143E+00
    1.786170E+00    1.649855E+00
    1.787468E+00    1.667912E+00
    1.788739E+00    1.686344E+00
    1.790002E+00    1.705177E+00
    1.791275E+00    1.724436E+00
    1.792582E+00    1.744141E+00
    1.793944E+00    1.764309E+00
    1.795384E+00    1.784953E+00
    1.796925E+00    1.806084E+00
    1.798584E+00    1.827712E+00
    1.800382E+00    1.849844E+00
    1.802333E+00    1.872489E+00
    1.804453E+00    1.895655E+00
    1.806757E+00    1.919352E+00
    1.809259E+00    1.943590E+00
    1.811974E+00    1.968380E+00
    1.814916E+00    1.993732E+00
    1.818100E+00    2.019657E+00
    1.821541E+00    2.046165E+00
    1.825252E+00    2.073264E+00
    1.829243E+00    2.100965E+00
    1.833523E+00    2.129277E+00
    1.838098E+00    2.158213E+00
    1.842970E+00    2.187789E+00
    1.848139E+00    2.218025E+00
    1.853605E+00    2.248947E+00
    1.859364E+00    2.280587E+00
    1.865418E+00    2.312986E+00
    1.871768E+00    2.346191E+00
    1.878420E+00    2.380257E+00
    1.885386E+00    2.415245E+00
    1.892683E+00    2.451222E+00
    1.900336E+00    2.488261E+00
    1.908376E+00    2.526440E+00
    1.916840E+00    2.565839E+00
    1.925774E+00    2.606546E+00
    1.935231E+00    2.648649E+00
    1.945269E+00    2.692244E+00
    1.955956E+00    2.737431E+00
    1.967366E+00    2.784319E+00
    1.979582E+00    2.833022E+00
    1.992698E+00    2.883666E+00
    2.006820E+00    2.936388E+00
    2.022069E+00    2.991339E+00
    2.038583E+00    3.048686E+00
    2.056525E+00    3.108612E+00
    2.076086E+00    3.171323E+00
    2.097494E+00    3.237045E+00
    2.121022E+00    3.306028E+00
    2.147004E+00    3.378544E+00
    2.175846E+00    3.454887E+00
    2.208048E+00    3.535365E+00
    2.244223E+00    3.620289E+00
    2.285124E+00    3.709956E+00
    2.331665E+00    3.804620E+00
    2.384951E+00    3.904451E+00
    2.446288E+00    4.009482E+00
    2.517196E+00    4.119536E+00
    2.599394E+00    4.234143E+00
    2.694763E+00    4.352441E+00
    2.805271E+00    4.473075E+00
    2.932854E+00    4.594100E+00
    3.079251E+00    4.712909E+00
    3.245795E+00    4.826203E+00
    3.433157E+00    4.930030E+00
    3.641086E+00    5.019906E+00
    3.868148E+00    5.091044E+00
    4.111525E+00    5.138702E+00
    4.366918E+00    5.158619E+00
    4.628585E+00    5.147544E+00
    4.889591E+00    5.103774E+00
    5.142255E+00    5.027648E+00
    5.378813E+00    4.921916E+00
    5.592256E+00    4.791862E+00
    5.777256E+00    4.645144E+00
    5.931063E+00    4.491265E+00
    6.054248E+00    4.340689E+00
    6.151120E+00    4.203653E+00
    6.229715E+00    4.088787E+00
    6.301243E+00    4.001713E+00
    6.379005E+00    3.943838E+00
    6.476834E+00    3.911550E+00
    6.607220E+00    3.896012E+00
    6.779370E+00    3.883668E+00
    6.997464E+00    3.857492E+00
    7.259418E+00    3.798884E+00
    7.556384E+00    3.690006E+00
