 Vespa-Simulation Mixed Metabolite Output
 This file was generated by Vespa-Simulation. You can learn about and download Vespa here:
https://github.com/vespa-mrs/vespa/tree/main/vespa

 
 Output Path/Filename = /home/stud/casperc/bhome/Project1(DeepFit)/DeepFit-data-generation/Initial_spectra_linewidth_10_TE30_1024p
 Output Loop Values = (1,1,1)  ( Loop 1 = 15, Loop 2 = 15, Loop3 Inactive )
 Output Comment
 ---------------------------------------------------------------------------
 
 
 Experiment Information
 ---------------------------------------------------------------------------
 --- Experiment 32780d98-dc11-42ab-ab27-92876fb0934a ---
 Name: PRESS_3T_30TE
 Public: False
 Created: 2023-12-19T15:15:29
 Comment (abbr.): LC-Model basis set clone +2-HG
 PI: Casper Cappelen
 b0: 127.740000
 Peak Search PPM low/high: 0.000000 / 10.000000
 Blend tol. PPM/phase: 0.001500 / 50.000000
 Pulse seq.: 43be13ae-de9a-40a1-9a2d-c872d8bjs100 (PRESS Ideal)
 0 User static parameters: 
 19 Metabolites: 2-hydroxyglutarate, GPC-gp, NAAG-truncated, alanine, aspartate, creatine, gaba, glucose-alpha, glucose-beta, glutamate, glutamine, glutathione-glutamate, lactate, myo-inositol, n-acetylaspartate, phosphocreatine, phosphorylcholine-notrimethyl, scyllo-inositol, taurine
 19 Simulations: (not shown)
 
 Metabolite Formatting Information
 ---------------------------------------------------------------------------
 Name=GPC-gp Abbr=GPC Scale=1.0 Shift=0.0 PPM Start=0.0 PPM End=4.5
 Name=NAAG-truncated Abbr=NAAG Scale=1.0 Shift=0.0 PPM Start=0.0 PPM End=4.5
 Name=alanine Abbr=Ala Scale=1.0 Shift=0.0 PPM Start=0.0 PPM End=4.5
 Name=aspartate Abbr=Asp Scale=1.0 Shift=0.0 PPM Start=0.0 PPM End=4.5
 Name=creatine Abbr=Cr Scale=1.0 Shift=0.1 PPM Start=0.0 PPM End=4.5
 Name=gaba Abbr=GABA Scale=1.0 Shift=0.0 PPM Start=0.0 PPM End=4.5
 Name=glutamate Abbr=Glu Scale=1.0 Shift=0.0 PPM Start=0.0 PPM End=4.5
 Name=glutamine Abbr=Gln Scale=1.0 Shift=0.0 PPM Start=0.0 PPM End=4.5
 Name=glutathione-glutamate Abbr=GSH Scale=1.0 Shift=0.0 PPM Start=0.0 PPM End=4.5
 Name=lactate Abbr=Lac Scale=1.0 Shift=0.0 PPM Start=0.0 PPM End=4.5
 Name=myo-inositol Abbr=mI Scale=1.0 Shift=0.0 PPM Start=0.0 PPM End=4.5
 Name=n-acetylaspartate Abbr=NAA Scale=1.0 Shift=0.0 PPM Start=0.0 PPM End=4.5
 Name=phosphocreatine Abbr=PCr Scale=1.0 Shift=0.0 PPM Start=0.0 PPM End=4.5
 Name=phosphorylcholine-notrimethyl Abbr=PCho Scale=1.0 Shift=0.0 PPM Start=0.0 PPM End=4.5
 Name=taurine Abbr=Tau Scale=1.0 Shift=0.0 PPM Start=0.0 PPM End=4.5
 Name=glucose-alpha+glucose-beta Abbr=Glc Scale=1.0 Shift=0.0 PPM Start=0.0 PPM End=4.5
   Mixture of [metab*scale] = glucose-alpha*1.000000 + glucose-beta*1.000000
 
 ===========================================================================
 This LCModel format RAW file was created using the 
 Vespa-Simulation spectral simulation program using 
 the following settings and parameters 
 
 Sweep Width = 574.83 Hz 
 Vector Size = 1024 points 
 Apodization = 10.0 Hz Gaussian broadening
 B0 Field    = 127.74 MHz 
 Ref Singlet = False
  
 $NMID ID='Lac'
 FMTDAT='(2E16.6)'
 VOLUME=1.0
 TRAMP=1.0
 $END
    2.772906E+00   -2.093046E-02
    2.482873E-01   -1.943040E+00
   -2.224068E+00    3.273620E-01
   -3.149066E-01    2.247679E+00
    1.719601E+00    4.772081E-03
   -3.912080E-03   -2.084384E+00
   -1.696590E+00   -2.960646E-01
    1.889018E-02    1.603018E+00
    1.654452E+00    2.027525E-01
    1.725754E-01   -1.327663E+00
   -1.349457E+00   -9.097529E-02
   -2.070225E-01    1.195976E+00
    1.043452E+00    1.273855E-01
    1.426831E-01   -9.774531E-01
   -8.368710E-01   -1.434999E-01
   -1.226513E-01    7.311073E-01
    6.265352E-01    1.040634E-01
    9.906566E-02   -5.354287E-01
   -4.184676E-01   -7.985272E-02
   -4.631110E-02    3.477220E-01
    2.579593E-01    5.127297E-02
    9.242540E-03   -1.683087E-01
   -1.172762E-01    3.211805E-03
    1.799987E-02    3.364434E-02
   -1.626909E-02   -5.204051E-02
   -5.884914E-02    6.676112E-02
    1.202034E-01    8.472498E-02
    1.028306E-01   -1.514398E-01
   -1.894466E-01   -1.139747E-01
   -1.359101E-01    2.189400E-01
    2.337285E-01    1.461939E-01
    1.535206E-01   -2.610095E-01
   -2.686662E-01   -1.773658E-01
   -1.682097E-01    2.699241E-01
    2.962525E-01    1.855888E-01
    1.983525E-01   -2.685253E-01
   -2.866143E-01   -1.718448E-01
   -2.152812E-01    2.873083E-01
    2.445397E-01    1.833742E-01
    1.827641E-01   -2.898870E-01
   -2.342854E-01   -2.189405E-01
   -1.513060E-01    2.320981E-01
    2.572185E-01    2.044425E-01
    1.790935E-01   -1.742157E-01
   -2.288491E-01   -1.400063E-01
   -2.043574E-01    1.848885E-01
    1.463497E-01    1.220110E-01
    1.538229E-01   -2.013874E-01
   -1.109622E-01   -1.610840E-01
   -9.079222E-02    1.452011E-01
    1.387609E-01    1.580232E-01
    9.844213E-02   -7.443533E-02
   -1.340035E-01   -9.333297E-02
   -1.275009E-01    7.149707E-02
    7.240390E-02    5.696647E-02
    9.985719E-02   -9.527023E-02
   -3.391163E-02   -7.706012E-02
   -4.825996E-02    7.284987E-02
    4.766781E-02    8.506073E-02
    3.831842E-02   -2.794446E-02
   -5.612770E-02   -5.195709E-02
   -5.381524E-02    1.707730E-02
    3.128313E-02    2.395074E-02
    4.701258E-02   -2.984911E-02
   -8.740008E-03   -2.624613E-02
   -2.317577E-02    2.704708E-02
    1.024688E-02    3.172743E-02
    1.289781E-02   -1.032289E-02
   -1.589037E-02   -2.168169E-02
   -1.623073E-02    2.919627E-03
    1.033833E-02    9.678889E-03
    1.552260E-02   -6.017126E-03
   -2.622637E-03   -7.328228E-03
   -8.632710E-03    6.807997E-03
    1.450377E-03    8.442688E-03
    4.180182E-03   -3.075304E-03
   -2.912018E-03   -6.358624E-03
   -3.847028E-03    6.077285E-04
    2.283205E-03    3.162515E-03
    3.622453E-03   -7.923597E-04
   -7.182055E-04   -1.866752E-03
   -2.247884E-03    1.084709E-03
    1.993869E-04    1.704767E-03
    1.135320E-03   -5.907986E-04
   -3.389935E-04   -1.292130E-03
   -7.775755E-04    1.473051E-04
    3.011010E-04    7.173669E-04
    6.173950E-04   -8.348009E-05
   -1.192680E-04   -3.973383E-04
   -3.916230E-04    1.019325E-04
    3.439083E-05    2.737662E-04
    2.123916E-04   -6.038959E-05
   -2.726962E-05   -1.813303E-04
   -1.243459E-04    2.062455E-05
    2.005325E-05    1.023661E-04
    7.626762E-05   -9.118625E-06
   -8.618850E-06   -5.573856E-05
   -4.227550E-05    5.570531E-06
    3.745968E-06    3.058528E-05
    2.181344E-05   -2.317347E-06
   -2.022678E-06   -1.517347E-05
   -1.078463E-05    1.110897E-06
    7.314138E-07    6.623323E-06
    4.384263E-06   -8.441572E-07
   -3.124867E-07   -2.486118E-06
   -1.035602E-06    4.769176E-07
    3.602704E-07    3.720058E-07
   -3.283695E-07   -2.710543E-07
   -3.360555E-07    6.221208E-07
    7.928840E-07    2.544151E-07
    2.622276E-07   -9.049429E-07
   -8.810269E-07   -2.529179E-07
   -2.131168E-07    8.501696E-07
    7.952832E-07    2.164804E-07
    1.922480E-07   -6.881001E-07
   -6.288808E-07   -1.572446E-07
   -1.714312E-07    5.361404E-07
    4.414006E-07    1.211334E-07
    1.188657E-07   -4.043077E-07
   -3.044196E-07   -1.150631E-07
   -6.868251E-08    2.678711E-07
    2.264088E-07    9.101606E-08
    5.838043E-08   -1.595643E-07
   -1.567526E-07   -4.690112E-08
   -5.758418E-08    1.081040E-07
    8.721418E-08    2.474640E-08
    3.623981E-08   -8.152100E-08
   -4.727819E-08   -2.652590E-08
   -1.380609E-08    4.963183E-08
    3.505365E-08    2.331700E-08
    9.016345E-09   -2.284568E-08
   -2.560209E-08   -1.086403E-08
   -1.080504E-08    1.285143E-08
    1.282611E-08    3.477922E-09
    7.458785E-09   -1.065041E-08
   -5.085038E-09   -3.482008E-09
   -2.526389E-09    6.837997E-09
    3.483246E-09    3.671942E-09
    9.579155E-10   -2.699337E-09
   -2.916837E-09   -1.883279E-09
   -1.250095E-09    1.070504E-09
    1.512674E-09    4.986691E-10
    1.008862E-09   -9.339136E-10
   -4.753051E-10   -3.140429E-10
   -3.833261E-10    6.851985E-10
    2.402892E-10    3.754236E-10
    1.025753E-10   -2.739229E-10
   -2.291136E-10   -2.239468E-10
   -1.004677E-10    7.726856E-11
    1.337092E-10    6.694931E-11
    9.120644E-11   -5.689719E-11
   -4.126375E-11   -2.559262E-11
   -4.101883E-11    4.797534E-11
    1.364834E-11    2.687599E-11
    1.141666E-11   -2.144564E-11
   -1.252617E-11   -1.798810E-11
   -6.677551E-12    5.574994E-12
    8.275907E-12    6.518954E-12
    5.770080E-12   -2.703581E-12
   -2.873275E-12   -2.136923E-12
   -2.949155E-12    2.319833E-12
    7.792317E-13    1.508334E-12
    9.764334E-13   -1.166320E-12
   -5.114219E-13   -9.997641E-13
   -4.158321E-13    3.416523E-13
    3.462436E-13    4.195740E-13
    2.749946E-13   -1.198141E-13
   -1.366529E-13   -1.470340E-13
   -1.430569E-13    8.017372E-14
    3.982200E-14    7.270546E-14
    5.464325E-14   -4.122215E-14
   -1.770898E-14   -4.008108E-14
   -2.151941E-14    1.400072E-14
    9.768807E-15    1.743344E-14
    1.037459E-14   -4.704023E-15
   -3.962532E-15   -6.641694E-15
   -4.685411E-15    2.132115E-15
    1.331626E-15    2.734309E-15
    1.831141E-15   -8.979059E-16
   -4.996447E-16   -1.138548E-15
   -6.992007E-16    3.161373E-16
    1.870545E-16    4.265350E-16
    2.598906E-16   -1.138988E-16
   -6.029792E-17   -1.508764E-16
   -8.373228E-17    3.928135E-17
    2.034275E-17    4.929355E-17
    2.282873E-17   -1.047113E-17
   -6.970930E-18   -1.147091E-17
   -4.319416E-18    2.521363E-18
    1.650627E-18    1.433168E-19
   -1.038225E-18   -7.004902E-19
   -1.742078E-19    1.895619E-18
    1.889816E-18    1.174945E-19
   -3.239955E-20   -1.675996E-18
   -1.430704E-18    3.609016E-20
    2.332799E-20    1.116403E-18
    8.603029E-19   -3.804498E-20
   -1.188403E-20   -6.591429E-19
   -4.661152E-19    6.126116E-21
    1.318501E-20    3.511512E-19
    2.487444E-19    9.008301E-21
   -3.660299E-21   -1.680075E-19
   -1.290814E-19   -2.116383E-21
   -6.669271E-21    8.050546E-20
    5.857502E-20   -1.991213E-21
    5.139558E-21   -4.184466E-20
   -2.422720E-20   -1.303365E-21
   -4.936825E-22    1.993993E-20
