 Vespa-Simulation Mixed Metabolite Output
 This file was generated by Vespa-Simulation. You can learn about and download Vespa here:
https://github.com/vespa-mrs/vespa/tree/main/vespa

 
 Output Path/Filename = /home/stud/casperc/bhome/Project1(DeepFit)/DeepFit-data-generation/Initial_spectra_linewidth_10_TE30_1024p
 Output Loop Values = (1,1,1)  ( Loop 1 = 15, Loop 2 = 15, Loop3 Inactive )
 Output Comment
 ---------------------------------------------------------------------------
 
 
 Experiment Information
 ---------------------------------------------------------------------------
 --- Experiment 32780d98-dc11-42ab-ab27-92876fb0934a ---
 Name: PRESS_3T_30TE
 Public: False
 Created: 2023-12-19T15:15:29
 Comment (abbr.): LC-Model basis set clone +2-HG
 PI: Casper Cappelen
 b0: 127.740000
 Peak Search PPM low/high: 0.000000 / 10.000000
 Blend tol. PPM/phase: 0.001500 / 50.000000
 Pulse seq.: 43be13ae-de9a-40a1-9a2d-c872d8bjs100 (PRESS Ideal)
 0 User static parameters: 
 19 Metabolites: 2-hydroxyglutarate, GPC-gp, NAAG-truncated, alanine, aspartate, creatine, gaba, glucose-alpha, glucose-beta, glutamate, glutamine, glutathione-glutamate, lactate, myo-inositol, n-acetylaspartate, phosphocreatine, phosphorylcholine-notrimethyl, scyllo-inositol, taurine
 19 Simulations: (not shown)
 
 Metabolite Formatting Information
 ---------------------------------------------------------------------------
 Name=GPC-gp Abbr=GPC Scale=1.0 Shift=0.0 PPM Start=0.0 PPM End=4.5
 Name=NAAG-truncated Abbr=NAAG Scale=1.0 Shift=0.0 PPM Start=0.0 PPM End=4.5
 Name=alanine Abbr=Ala Scale=1.0 Shift=0.0 PPM Start=0.0 PPM End=4.5
 Name=aspartate Abbr=Asp Scale=1.0 Shift=0.0 PPM Start=0.0 PPM End=4.5
 Name=creatine Abbr=Cr Scale=1.0 Shift=0.1 PPM Start=0.0 PPM End=4.5
 Name=gaba Abbr=GABA Scale=1.0 Shift=0.0 PPM Start=0.0 PPM End=4.5
 Name=glutamate Abbr=Glu Scale=1.0 Shift=0.0 PPM Start=0.0 PPM End=4.5
 Name=glutamine Abbr=Gln Scale=1.0 Shift=0.0 PPM Start=0.0 PPM End=4.5
 Name=glutathione-glutamate Abbr=GSH Scale=1.0 Shift=0.0 PPM Start=0.0 PPM End=4.5
 Name=lactate Abbr=Lac Scale=1.0 Shift=0.0 PPM Start=0.0 PPM End=4.5
 Name=myo-inositol Abbr=mI Scale=1.0 Shift=0.0 PPM Start=0.0 PPM End=4.5
 Name=n-acetylaspartate Abbr=NAA Scale=1.0 Shift=0.0 PPM Start=0.0 PPM End=4.5
 Name=phosphocreatine Abbr=PCr Scale=1.0 Shift=0.0 PPM Start=0.0 PPM End=4.5
 Name=phosphorylcholine-notrimethyl Abbr=PCho Scale=1.0 Shift=0.0 PPM Start=0.0 PPM End=4.5
 Name=taurine Abbr=Tau Scale=1.0 Shift=0.0 PPM Start=0.0 PPM End=4.5
 Name=glucose-alpha+glucose-beta Abbr=Glc Scale=1.0 Shift=0.0 PPM Start=0.0 PPM End=4.5
   Mixture of [metab*scale] = glucose-alpha*1.000000 + glucose-beta*1.000000
 
 ===========================================================================
 This LCModel format RAW file was created using the 
 Vespa-Simulation spectral simulation program using 
 the following settings and parameters 
 
 Sweep Width = 574.83 Hz 
 Vector Size = 1024 points 
 Apodization = 10.0 Hz Gaussian broadening
 B0 Field    = 127.74 MHz 
 Ref Singlet = False
  
 This data has been FFTd to be in the FREQUENCY domain
 
 $NMID ID='Lac'
 FMTDAT='(2E16.6)'
 VOLUME=1.0
 TRAMP=1.0
 $END
    1.451427E+00   -6.941107E-01
    1.452123E+00   -6.827032E-01
    1.452842E+00   -6.712826E-01
    1.453583E+00   -6.598468E-01
    1.454348E+00   -6.483943E-01
    1.455138E+00   -6.369230E-01
    1.455952E+00   -6.254312E-01
    1.456791E+00   -6.139169E-01
    1.457657E+00   -6.023781E-01
    1.458550E+00   -5.908128E-01
    1.459470E+00   -5.792189E-01
    1.460418E+00   -5.675941E-01
    1.461396E+00   -5.559363E-01
    1.462403E+00   -5.442431E-01
    1.463442E+00   -5.325120E-01
    1.464512E+00   -5.207405E-01
    1.465615E+00   -5.089261E-01
    1.466752E+00   -4.970662E-01
    1.467924E+00   -4.851580E-01
    1.469133E+00   -4.731991E-01
    1.470380E+00   -4.611865E-01
    1.471667E+00   -4.491177E-01
    1.472995E+00   -4.369897E-01
    1.474366E+00   -4.248000E-01
    1.475782E+00   -4.125455E-01
    1.477243E+00   -4.002234E-01
    1.478752E+00   -3.878306E-01
    1.480310E+00   -3.753639E-01
    1.481920E+00   -3.628201E-01
    1.483583E+00   -3.501958E-01
    1.485301E+00   -3.374873E-01
    1.487077E+00   -3.246910E-01
    1.488912E+00   -3.118031E-01
    1.490809E+00   -2.988197E-01
    1.492771E+00   -2.857366E-01
    1.494801E+00   -2.725496E-01
    1.496901E+00   -2.592545E-01
    1.499074E+00   -2.458469E-01
    1.501323E+00   -2.323221E-01
    1.503653E+00   -2.186753E-01
    1.506065E+00   -2.049017E-01
    1.508565E+00   -1.909959E-01
    1.511155E+00   -1.769526E-01
    1.513841E+00   -1.627661E-01
    1.516625E+00   -1.484304E-01
    1.519513E+00   -1.339393E-01
    1.522511E+00   -1.192862E-01
    1.525623E+00   -1.044644E-01
    1.528855E+00   -8.946689E-02
    1.532213E+00   -7.428627E-02
    1.535705E+00   -5.891497E-02
    1.539337E+00   -4.334515E-02
    1.543118E+00   -2.756863E-02
    1.547054E+00   -1.157698E-02
    1.551155E+00    4.638589E-03
    1.555431E+00    2.108722E-02
    1.559890E+00    3.777843E-02
    1.564545E+00    5.472218E-02
    1.569405E+00    7.192888E-02
    1.574483E+00    8.940945E-02
    1.579793E+00    1.071754E-01
    1.585348E+00    1.252388E-01
    1.591163E+00    1.436123E-01
    1.597254E+00    1.623095E-01
    1.603640E+00    1.813445E-01
    1.610339E+00    2.007323E-01
    1.617372E+00    2.204887E-01
    1.624763E+00    2.406303E-01
    1.632536E+00    2.611747E-01
    1.640719E+00    2.821404E-01
    1.649343E+00    3.035466E-01
    1.658440E+00    3.254135E-01
    1.668047E+00    3.477624E-01
    1.678206E+00    3.706155E-01
    1.688961E+00    3.939958E-01
    1.700361E+00    4.179274E-01
    1.712463E+00    4.424355E-01
    1.725329E+00    4.675461E-01
    1.739027E+00    4.932861E-01
    1.753638E+00    5.196831E-01
    1.769249E+00    5.467650E-01
    1.785962E+00    5.745595E-01
    1.803894E+00    6.030930E-01
    1.823179E+00    6.323892E-01
    1.843970E+00    6.624669E-01
    1.866448E+00    6.933367E-01
    1.890820E+00    7.249961E-01
    1.917326E+00    7.574226E-01
    1.946246E+00    7.905650E-01
    1.977894E+00    8.243310E-01
    2.012628E+00    8.585710E-01
    2.050841E+00    8.930596E-01
    2.092955E+00    9.274720E-01
    2.139401E+00    9.613595E-01
    2.190595E+00    9.941233E-01
    2.246896E+00    1.024992E+00
    2.308551E+00    1.053008E+00
    2.375628E+00    1.077024E+00
    2.447935E+00    1.095726E+00
    2.524929E+00    1.107684E+00
    2.605640E+00    1.111435E+00
    2.688596E+00    1.105616E+00
    2.771794E+00    1.089122E+00
    2.852720E+00    1.061317E+00
    2.928440E+00    1.022244E+00
    2.995781E+00    9.728353E-01
    3.051601E+00    9.150827E-01
    3.093155E+00    8.521229E-01
    3.118513E+00    7.882010E-01
    3.127012E+00    7.284782E-01
    3.119671E+00    6.786587E-01
    3.099489E+00    6.444394E-01
    3.071576E+00    6.308103E-01
    3.043019E+00    6.412670E-01
    3.022460E+00    6.770279E-01
    3.019356E+00    7.363712E-01
    3.042968E+00    8.142173E-01
    3.101144E+00    9.020706E-01
    3.199061E+00    9.884096E-01
    3.338053E+00    1.059557E+00
    3.514758E+00    1.101002E+00
    3.720718E+00    1.099059E+00
    3.942604E+00    1.042706E+00
    4.163110E+00    9.253387E-01
    4.362502E+00    7.462185E-01
    4.520693E+00    5.113415E-01
    4.619629E+00    2.335444E-01
    4.645690E+00   -6.826139E-02
    4.591778E+00   -3.707212E-01
    4.458777E+00   -6.483970E-01
    4.256121E+00   -8.766038E-01
    4.001324E+00   -1.034376E+00
    3.718462E+00   -1.107178E+00
    3.435727E+00   -1.088968E+00
    3.182339E+00   -9.833184E-01
    2.985192E+00   -8.033795E-01
    2.865668E+00   -5.706598E-01
    2.837036E+00   -3.127359E-01
    2.902807E+00   -6.017132E-02
    3.056259E+00    1.569661E-01
    3.281212E+00    3.125395E-01
    3.553953E+00    3.872842E-01
    3.846040E+00    3.708804E-01
    4.127632E+00    2.629051E-01
    4.370885E+00    7.256724E-02
    4.552993E+00   -1.827002E-01
    4.658490E+00   -4.795685E-01
    4.680568E+00   -7.917220E-01
    4.621292E+00   -1.092950E+00
    4.490753E+00   -1.360023E+00
    4.305345E+00   -1.575002E+00
    4.085440E+00   -1.726748E+00
    3.852812E+00   -1.811502E+00
    3.628144E+00   -1.832553E+00
    3.428921E+00   -1.799133E+00
    3.267920E+00   -1.724749E+00
    3.152421E+00   -1.625222E+00
    3.084141E+00   -1.516718E+00
    3.059801E+00   -1.413994E+00
    3.072175E+00   -1.329054E+00
    3.111430E+00   -1.270310E+00
    3.166532E+00   -1.242268E+00
    3.226572E+00   -1.245695E+00
    3.281836E+00   -1.278168E+00
    3.324569E+00   -1.334858E+00
    3.349381E+00   -1.409441E+00
    3.353326E+00   -1.494973E+00
    3.335717E+00   -1.584671E+00
    3.297739E+00   -1.672499E+00
    3.241961E+00   -1.753565E+00
    3.171818E+00   -1.824303E+00
    3.091130E+00   -1.882491E+00
    3.003698E+00   -1.927131E+00
    2.913005E+00   -1.958244E+00
    2.822016E+00   -1.976621E+00
    2.733091E+00   -1.983572E+00
    2.647965E+00   -1.980700E+00
    2.567794E+00   -1.969705E+00
    2.493236E+00   -1.952246E+00
    2.424547E+00   -1.929845E+00
    2.361683E+00   -1.903828E+00
    2.304396E+00   -1.875306E+00
    2.252307E+00   -1.845174E+00
    2.204968E+00   -1.814133E+00
    2.161915E+00   -1.782711E+00
    2.122689E+00   -1.751296E+00
    2.086862E+00   -1.720163E+00
    2.054045E+00   -1.689499E+00
    2.023893E+00   -1.659426E+00
    1.996103E+00   -1.630019E+00
    1.970411E+00   -1.601319E+00
    1.946589E+00   -1.573343E+00
    1.924441E+00   -1.546093E+00
    1.903797E+00   -1.519559E+00
    1.884509E+00   -1.493726E+00
    1.866448E+00   -1.468574E+00
    1.849505E+00   -1.444081E+00
    1.833579E+00   -1.420225E+00
    1.818584E+00   -1.396980E+00
    1.804444E+00   -1.374325E+00
    1.791090E+00   -1.352235E+00
    1.778461E+00   -1.330689E+00
    1.766502E+00   -1.309665E+00
    1.755164E+00   -1.289142E+00
    1.744401E+00   -1.269100E+00
    1.734174E+00   -1.249521E+00
