 Vespa-Simulation Mixed Metabolite Output
 This file was generated by Vespa-Simulation. You can learn about and download Vespa here:
https://github.com/vespa-mrs/vespa/tree/main/vespa

 
 Output Path/Filename = /home/stud/casperc/bhome/Project1(DeepFit)/DeepFit-data-generation/Initial_spectra_linewidth_10_TE30_1024p
 Output Loop Values = (1,1,1)  ( Loop 1 = 15, Loop 2 = 15, Loop3 Inactive )
 Output Comment
 ---------------------------------------------------------------------------
 
 
 Experiment Information
 ---------------------------------------------------------------------------
 --- Experiment 32780d98-dc11-42ab-ab27-92876fb0934a ---
 Name: PRESS_3T_30TE
 Public: False
 Created: 2023-12-19T15:15:29
 Comment (abbr.): LC-Model basis set clone +2-HG
 PI: Casper Cappelen
 b0: 127.740000
 Peak Search PPM low/high: 0.000000 / 10.000000
 Blend tol. PPM/phase: 0.001500 / 50.000000
 Pulse seq.: 43be13ae-de9a-40a1-9a2d-c872d8bjs100 (PRESS Ideal)
 0 User static parameters: 
 19 Metabolites: 2-hydroxyglutarate, GPC-gp, NAAG-truncated, alanine, aspartate, creatine, gaba, glucose-alpha, glucose-beta, glutamate, glutamine, glutathione-glutamate, lactate, myo-inositol, n-acetylaspartate, phosphocreatine, phosphorylcholine-notrimethyl, scyllo-inositol, taurine
 19 Simulations: (not shown)
 
 Metabolite Formatting Information
 ---------------------------------------------------------------------------
 Name=GPC-gp Abbr=GPC Scale=1.0 Shift=0.0 PPM Start=0.0 PPM End=4.5
 Name=NAAG-truncated Abbr=NAAG Scale=1.0 Shift=0.0 PPM Start=0.0 PPM End=4.5
 Name=alanine Abbr=Ala Scale=1.0 Shift=0.0 PPM Start=0.0 PPM End=4.5
 Name=aspartate Abbr=Asp Scale=1.0 Shift=0.0 PPM Start=0.0 PPM End=4.5
 Name=creatine Abbr=Cr Scale=1.0 Shift=0.1 PPM Start=0.0 PPM End=4.5
 Name=gaba Abbr=GABA Scale=1.0 Shift=0.0 PPM Start=0.0 PPM End=4.5
 Name=glutamate Abbr=Glu Scale=1.0 Shift=0.0 PPM Start=0.0 PPM End=4.5
 Name=glutamine Abbr=Gln Scale=1.0 Shift=0.0 PPM Start=0.0 PPM End=4.5
 Name=glutathione-glutamate Abbr=GSH Scale=1.0 Shift=0.0 PPM Start=0.0 PPM End=4.5
 Name=lactate Abbr=Lac Scale=1.0 Shift=0.0 PPM Start=0.0 PPM End=4.5
 Name=myo-inositol Abbr=mI Scale=1.0 Shift=0.0 PPM Start=0.0 PPM End=4.5
 Name=n-acetylaspartate Abbr=NAA Scale=1.0 Shift=0.0 PPM Start=0.0 PPM End=4.5
 Name=phosphocreatine Abbr=PCr Scale=1.0 Shift=0.0 PPM Start=0.0 PPM End=4.5
 Name=phosphorylcholine-notrimethyl Abbr=PCho Scale=1.0 Shift=0.0 PPM Start=0.0 PPM End=4.5
 Name=taurine Abbr=Tau Scale=1.0 Shift=0.0 PPM Start=0.0 PPM End=4.5
 Name=glucose-alpha+glucose-beta Abbr=Glc Scale=1.0 Shift=0.0 PPM Start=0.0 PPM End=4.5
   Mixture of [metab*scale] = glucose-alpha*1.000000 + glucose-beta*1.000000
 
 ===========================================================================
 This LCModel format RAW file was created using the 
 Vespa-Simulation spectral simulation program using 
 the following settings and parameters 
 
 Sweep Width = 574.83 Hz 
 Vector Size = 1024 points 
 Apodization = 10.0 Hz Gaussian broadening
 B0 Field    = 127.74 MHz 
 Ref Singlet = False
  
 $NMID ID='mI'
 FMTDAT='(2E16.6)'
 VOLUME=1.0
 TRAMP=1.0
 $END
    5.391822E+00    1.283677E-01
    9.138773E-02    5.099195E+00
   -4.338440E+00    1.256827E-01
    1.143855E-01   -3.384263E+00
    2.556926E+00    5.751859E-01
   -1.082251E+00    2.093046E+00
   -2.057809E+00   -1.420919E+00
    1.437376E+00   -2.333934E+00
    2.687690E+00    1.112480E+00
   -5.740119E-01    2.878804E+00
   -2.763832E+00   -4.225854E-02
   -2.653485E-01   -2.348682E+00
    1.771519E+00   -2.270695E-01
   -1.343103E-01    1.229309E+00
   -8.853058E-01   -6.664669E-01
    1.156978E+00   -8.001613E-01
    9.152340E-01    1.424348E+00
   -1.389968E+00    1.090739E+00
   -1.176680E+00   -1.101428E+00
    7.010889E-01   -1.081576E+00
    8.084370E-01    3.580050E-01
   -1.956341E-01    4.450251E-01
   -1.171887E-01   -2.465522E-01
    4.505917E-01    7.026153E-02
   -7.759758E-02    6.921452E-01
   -8.561204E-01    5.871179E-02
   -2.490399E-01   -8.762798E-01
    7.563052E-01   -3.939418E-01
    4.265601E-01    5.581922E-01
   -3.674858E-01    3.358444E-01
   -1.632570E-01   -2.534879E-01
    2.422585E-01    2.207078E-02
   -1.560373E-01    3.121302E-01
   -4.102410E-01   -2.049948E-01
    1.742585E-01   -4.798398E-01
    4.849859E-01    9.888295E-02
   -2.358953E-02    4.225748E-01
   -3.186307E-01    1.767100E-02
   -1.366272E-02   -2.130462E-01
    1.411485E-01    2.418843E-02
   -7.162719E-02    1.203132E-01
   -1.462352E-01   -1.050358E-01
    1.119513E-01   -1.985571E-01
    2.516845E-01    9.461867E-02
   -6.630099E-02    2.853673E-01
   -2.908292E-01   -4.335958E-02
    3.735353E-02   -2.710236E-01
    2.363320E-01    5.060539E-02
   -7.648549E-02    1.985912E-01
   -1.662894E-01   -1.034890E-01
    1.206065E-01   -1.425727E-01
    1.260610E-01    1.215838E-01
   -1.065380E-01    1.132921E-01
   -1.012334E-01   -8.082458E-02
    5.217088E-02   -8.872474E-02
    7.648431E-02    2.758316E-02
   -1.121376E-02    6.611955E-02
   -5.887877E-02   -3.766529E-03
    3.247064E-03   -5.484198E-02
    5.285878E-02    6.415709E-03
   -1.021515E-02    5.112005E-02
   -4.797845E-02   -1.266166E-02
    1.306697E-02   -4.259737E-02
    3.517450E-02    1.172562E-02
   -9.387325E-03    2.672049E-02
   -1.856614E-02   -6.789530E-03
    4.406183E-03   -1.184701E-02
    7.166608E-03    2.419307E-03
   -8.292778E-04    4.520489E-03
   -3.445922E-03    4.137914E-04
   -1.329668E-03   -3.281943E-03
    3.417942E-03   -1.900236E-03
    2.108218E-03    3.447872E-03
   -3.207077E-03    1.980788E-03
   -1.605246E-03   -2.719914E-03
    2.106896E-03   -1.111875E-03
    6.341934E-04    1.499849E-03
   -9.903181E-04    2.700303E-04
   -6.092580E-05   -6.150778E-04
    3.677278E-04    6.145470E-06
    2.120171E-05    2.197112E-04
   -1.385769E-04    8.620148E-05
   -1.437351E-04   -9.799612E-05
    8.011969E-05   -1.702170E-04
    1.628112E-04    7.379652E-05
   -7.192100E-05    1.319920E-04
   -9.246998E-05   -6.985037E-05
    6.486248E-05   -5.639561E-05
    3.025789E-05    5.614877E-05
   -4.454476E-05    1.510867E-05
   -8.552276E-06   -3.188554E-05
    2.014592E-05   -7.033465E-06
    7.480183E-06    1.073921E-05
   -4.212844E-06    7.996683E-06
   -7.837420E-06   -3.412886E-07
   -1.543210E-06   -7.009591E-06
    5.834600E-06   -2.193808E-06
    2.214174E-06    4.636557E-06
   -3.598766E-06    1.977582E-06
   -1.664832E-06   -2.748773E-06
    2.014391E-06   -1.342998E-06
    1.035193E-06    1.297717E-06
   -5.360412E-07    7.558298E-07
   -5.189753E-07    2.677850E-07
   -1.048740E-06   -3.350634E-07
    2.074360E-07   -1.708758E-06
    2.157276E-06    1.324882E-07
   -1.015909E-07    2.345820E-06
   -2.283999E-06   -1.026394E-07
    1.196600E-07   -2.033005E-06
    1.682033E-06    1.345753E-07
   -1.298058E-07    1.319172E-06
   -1.008178E-06   -9.385315E-08
    2.523367E-08   -7.783577E-07
    6.278379E-07   -6.607110E-08
    1.616402E-07    5.355963E-07
   -4.754386E-07    2.410560E-07
   -2.885566E-07   -4.264432E-07
    3.773191E-07   -2.978450E-07
    2.728237E-07    3.255746E-07
   -2.736899E-07    2.249964E-07
   -1.686974E-07   -2.252370E-07
    1.824791E-07   -1.164230E-07
    7.592775E-08    1.457688E-07
   -1.142937E-07    4.946185E-08
   -3.502759E-08   -8.708432E-08
    6.369174E-08   -2.848454E-08
    2.559949E-08    4.425353E-08
   -2.911923E-08    2.337482E-08
   -2.041941E-08   -1.839885E-08
    1.168687E-08   -1.664633E-08
    1.263375E-08    8.091541E-09
   -6.477841E-09    9.041981E-09
   -6.265356E-09   -5.784988E-09
    5.261167E-09   -4.355088E-09
    3.125360E-09    4.542632E-09
   -3.592944E-09    2.313574E-09
   -1.708011E-09   -2.559853E-09
    1.629800E-09   -1.198455E-09
    7.623641E-10    9.297107E-10
   -4.926369E-10    4.202293E-10
   -1.918225E-10   -2.748950E-10
    1.963991E-10   -7.370897E-11
    3.858468E-11    1.796145E-10
   -1.723165E-10    4.826542E-11
   -6.860568E-11   -1.521428E-10
    1.186873E-10   -7.879148E-11
    7.269231E-11    8.146799E-11
   -5.004981E-11    5.455756E-11
   -3.263234E-11   -2.918304E-11
    1.844995E-11   -1.404062E-11
    2.322979E-12    1.441939E-11
   -1.319986E-11   -2.547411E-12
    2.732070E-12   -1.209605E-11
    1.006226E-11    8.773325E-13
    1.021159E-12    7.288402E-12
   -4.478691E-12    2.011432E-12
   -2.019800E-12   -2.258744E-12
    8.962895E-13   -1.432920E-12
    7.099367E-13    3.079063E-13
   -2.168874E-13    1.572065E-13
    1.244510E-13   -3.270885E-13
    4.323678E-13    1.827972E-13
   -1.243372E-13    4.454042E-13
   -3.696128E-13   -4.399165E-14
   -6.414053E-15   -2.508010E-13
    1.363994E-13   -1.675682E-14
    1.185667E-15    5.441102E-14
   -1.060249E-14   -2.066161E-14
    3.519243E-14    3.862299E-15
   -2.557666E-15    3.804802E-14
   -3.173992E-14    3.222904E-15
   -7.259586E-15   -2.147384E-14
    1.180558E-14   -7.898404E-15
    6.104374E-15    5.132041E-15
   -1.762862E-15    3.547807E-15
   -1.461490E-15   -7.782515E-16
    9.551980E-16   -3.073964E-16
   -3.902550E-17    1.356470E-15
   -1.518642E-15    5.506260E-17
   -2.514328E-16   -1.365946E-15
    1.022534E-15   -3.624841E-16
    3.473058E-16    6.483307E-16
   -3.501049E-16    2.495406E-16
   -1.328219E-16   -1.627156E-16
    7.024581E-17   -4.187204E-17
   -7.748963E-18    3.682559E-17
   -2.946566E-17   -2.226691E-17
    1.682212E-17   -2.778263E-17
    2.375966E-17    5.424969E-18
    3.574658E-18    1.700648E-17
   -9.863804E-18    7.529708E-18
   -7.338323E-18   -4.362259E-18
    1.203476E-18   -5.106476E-18
    2.632028E-18   -2.045109E-21
    8.452827E-20    8.548248E-19
    4.368562E-20   -2.093329E-19
    4.457747E-19    2.943088E-19
   -2.233427E-19    4.903340E-19
   -3.854360E-19   -7.624821E-20
   -2.736552E-20   -2.271028E-19
    9.048916E-20   -6.361661E-20
    5.453845E-20    7.205516E-21
    2.570534E-20    2.984076E-20
   -8.876644E-21    2.688363E-20
   -1.545472E-20    1.877719E-21
   -4.120674E-21   -3.800480E-21
   -3.111619E-21   -2.197026E-21
