 Vespa-Simulation Mixed Metabolite Output
 This file was generated by Vespa-Simulation. You can learn about and download Vespa here:
https://github.com/vespa-mrs/vespa/tree/main/vespa

 
 Output Path/Filename = /home/stud/casperc/bhome/Project1(DeepFit)/DeepFit-data-generation/Initial_spectra_linewidth_10_TE30_1024p
 Output Loop Values = (1,1,1)  ( Loop 1 = 15, Loop 2 = 15, Loop3 Inactive )
 Output Comment
 ---------------------------------------------------------------------------
 
 
 Experiment Information
 ---------------------------------------------------------------------------
 --- Experiment 32780d98-dc11-42ab-ab27-92876fb0934a ---
 Name: PRESS_3T_30TE
 Public: False
 Created: 2023-12-19T15:15:29
 Comment (abbr.): LC-Model basis set clone +2-HG
 PI: Casper Cappelen
 b0: 127.740000
 Peak Search PPM low/high: 0.000000 / 10.000000
 Blend tol. PPM/phase: 0.001500 / 50.000000
 Pulse seq.: 43be13ae-de9a-40a1-9a2d-c872d8bjs100 (PRESS Ideal)
 0 User static parameters: 
 19 Metabolites: 2-hydroxyglutarate, GPC-gp, NAAG-truncated, alanine, aspartate, creatine, gaba, glucose-alpha, glucose-beta, glutamate, glutamine, glutathione-glutamate, lactate, myo-inositol, n-acetylaspartate, phosphocreatine, phosphorylcholine-notrimethyl, scyllo-inositol, taurine
 19 Simulations: (not shown)
 
 Metabolite Formatting Information
 ---------------------------------------------------------------------------
 Name=GPC-gp Abbr=GPC Scale=1.0 Shift=0.0 PPM Start=0.0 PPM End=4.5
 Name=NAAG-truncated Abbr=NAAG Scale=1.0 Shift=0.0 PPM Start=0.0 PPM End=4.5
 Name=alanine Abbr=Ala Scale=1.0 Shift=0.0 PPM Start=0.0 PPM End=4.5
 Name=aspartate Abbr=Asp Scale=1.0 Shift=0.0 PPM Start=0.0 PPM End=4.5
 Name=creatine Abbr=Cr Scale=1.0 Shift=0.1 PPM Start=0.0 PPM End=4.5
 Name=gaba Abbr=GABA Scale=1.0 Shift=0.0 PPM Start=0.0 PPM End=4.5
 Name=glutamate Abbr=Glu Scale=1.0 Shift=0.0 PPM Start=0.0 PPM End=4.5
 Name=glutamine Abbr=Gln Scale=1.0 Shift=0.0 PPM Start=0.0 PPM End=4.5
 Name=glutathione-glutamate Abbr=GSH Scale=1.0 Shift=0.0 PPM Start=0.0 PPM End=4.5
 Name=lactate Abbr=Lac Scale=1.0 Shift=0.0 PPM Start=0.0 PPM End=4.5
 Name=myo-inositol Abbr=mI Scale=1.0 Shift=0.0 PPM Start=0.0 PPM End=4.5
 Name=n-acetylaspartate Abbr=NAA Scale=1.0 Shift=0.0 PPM Start=0.0 PPM End=4.5
 Name=phosphocreatine Abbr=PCr Scale=1.0 Shift=0.0 PPM Start=0.0 PPM End=4.5
 Name=phosphorylcholine-notrimethyl Abbr=PCho Scale=1.0 Shift=0.0 PPM Start=0.0 PPM End=4.5
 Name=taurine Abbr=Tau Scale=1.0 Shift=0.0 PPM Start=0.0 PPM End=4.5
 Name=glucose-alpha+glucose-beta Abbr=Glc Scale=1.0 Shift=0.0 PPM Start=0.0 PPM End=4.5
   Mixture of [metab*scale] = glucose-alpha*1.000000 + glucose-beta*1.000000
 
 ===========================================================================
 This LCModel format RAW file was created using the 
 Vespa-Simulation spectral simulation program using 
 the following settings and parameters 
 
 Sweep Width = 574.83 Hz 
 Vector Size = 1024 points 
 Apodization = 10.0 Hz Gaussian broadening
 B0 Field    = 127.74 MHz 
 Ref Singlet = False
  
 This data has been FFTd to be in the FREQUENCY domain
 
 $NMID ID='mI'
 FMTDAT='(2E16.6)'
 VOLUME=1.0
 TRAMP=1.0
 $END
    2.636343E+00    3.111016E+00
    2.636012E+00    3.131662E+00
    2.635680E+00    3.152484E+00
    2.635346E+00    3.173485E+00
    2.635012E+00    3.194668E+00
    2.634676E+00    3.216037E+00
    2.634339E+00    3.237595E+00
    2.634002E+00    3.259346E+00
    2.633663E+00    3.281292E+00
    2.633324E+00    3.303437E+00
    2.632984E+00    3.325785E+00
    2.632643E+00    3.348339E+00
    2.632301E+00    3.371104E+00
    2.631959E+00    3.394083E+00
    2.631616E+00    3.417280E+00
    2.631273E+00    3.440699E+00
    2.630929E+00    3.464345E+00
    2.630585E+00    3.488222E+00
    2.630240E+00    3.512334E+00
    2.629894E+00    3.536685E+00
    2.629548E+00    3.561281E+00
    2.629202E+00    3.586127E+00
    2.628855E+00    3.611227E+00
    2.628509E+00    3.636586E+00
    2.628161E+00    3.662210E+00
    2.627814E+00    3.688104E+00
    2.627466E+00    3.714274E+00
    2.627118E+00    3.740725E+00
    2.626770E+00    3.767463E+00
    2.626422E+00    3.794496E+00
    2.626074E+00    3.821828E+00
    2.625725E+00    3.849467E+00
    2.625377E+00    3.877419E+00
    2.625029E+00    3.905691E+00
    2.624681E+00    3.934291E+00
    2.624334E+00    3.963226E+00
    2.623988E+00    3.992503E+00
    2.623643E+00    4.022130E+00
    2.623298E+00    4.052116E+00
    2.622955E+00    4.082469E+00
    2.622614E+00    4.113198E+00
    2.622274E+00    4.144311E+00
    2.621937E+00    4.175817E+00
    2.621601E+00    4.207727E+00
    2.621268E+00    4.240050E+00
    2.620937E+00    4.272796E+00
    2.620609E+00    4.305977E+00
    2.620283E+00    4.339602E+00
    2.619960E+00    4.373685E+00
    2.619641E+00    4.408236E+00
    2.619325E+00    4.443268E+00
    2.619012E+00    4.478795E+00
    2.618704E+00    4.514830E+00
    2.618399E+00    4.551386E+00
    2.618099E+00    4.588479E+00
    2.617804E+00    4.626123E+00
    2.617515E+00    4.664335E+00
    2.617231E+00    4.703131E+00
    2.616954E+00    4.742529E+00
    2.616684E+00    4.782546E+00
    2.616422E+00    4.823200E+00
    2.616169E+00    4.864512E+00
    2.615925E+00    4.906503E+00
    2.615691E+00    4.949192E+00
    2.615468E+00    4.992602E+00
    2.615258E+00    5.036757E+00
    2.615060E+00    5.081681E+00
    2.614876E+00    5.127399E+00
    2.614707E+00    5.173938E+00
    2.614554E+00    5.221327E+00
    2.614418E+00    5.269594E+00
    2.614299E+00    5.318770E+00
    2.614200E+00    5.368890E+00
    2.614122E+00    5.419986E+00
    2.614065E+00    5.472097E+00
    2.614032E+00    5.525259E+00
    2.614023E+00    5.579514E+00
    2.614041E+00    5.634906E+00
    2.614088E+00    5.691479E+00
    2.614166E+00    5.749281E+00
    2.614277E+00    5.808365E+00
    2.614424E+00    5.868783E+00
    2.614609E+00    5.930593E+00
    2.614835E+00    5.993856E+00
    2.615105E+00    6.058637E+00
    2.615421E+00    6.125004E+00
    2.615784E+00    6.193032E+00
    2.616198E+00    6.262800E+00
    2.616662E+00    6.334393E+00
    2.617179E+00    6.407905E+00
    2.617750E+00    6.483434E+00
    2.618374E+00    6.561091E+00
    2.619054E+00    6.640995E+00
    2.619790E+00    6.723277E+00
    2.620587E+00    6.808079E+00
    2.621450E+00    6.895559E+00
    2.622386E+00    6.985889E+00
    2.623407E+00    7.079257E+00
    2.624531E+00    7.175868E+00
    2.625777E+00    7.275947E+00
    2.627172E+00    7.379739E+00
    2.628748E+00    7.487509E+00
    2.630542E+00    7.599551E+00
    2.632594E+00    7.716184E+00
    2.634949E+00    7.837763E+00
    2.637654E+00    7.964685E+00
    2.640762E+00    8.097395E+00
    2.644328E+00    8.236403E+00
    2.648420E+00    8.382297E+00
    2.653122E+00    8.535760E+00
    2.658549E+00    8.697595E+00
    2.664867E+00    8.868745E+00
    2.672322E+00    9.050324E+00
    2.681277E+00    9.243637E+00
    2.692267E+00    9.450206E+00
    2.706066E+00    9.671792E+00
    2.723772E+00    9.910397E+00
    2.746907E+00    1.016826E+01
    2.777540E+00    1.044783E+01
    2.818419E+00    1.075170E+01
    2.873115E+00    1.108251E+01
    2.946172E+00    1.144277E+01
    3.043231E+00    1.183468E+01
    3.171139E+00    1.225986E+01
    3.337994E+00    1.271896E+01
    3.553116E+00    1.321132E+01
    3.826909E+00    1.373446E+01
    4.170596E+00    1.428368E+01
    4.595796E+00    1.485156E+01
    5.113942E+00    1.542762E+01
    5.735537E+00    1.599800E+01
    6.469270E+00    1.654542E+01
    7.321032E+00    1.704929E+01
    8.292904E+00    1.748612E+01
    9.382177E+00    1.783028E+01
    1.058052E+01    1.805499E+01
    1.187338E+01    1.813364E+01
    1.323970E+01    1.804136E+01
    1.465212E+01    1.775667E+01
    1.607750E+01    1.726317E+01
    1.747807E+01    1.655112E+01
    1.881293E+01    1.561870E+01
    2.003999E+01    1.447299E+01
    2.111809E+01    1.313027E+01
    2.200932E+01    1.161589E+01
    2.268116E+01    9.963415E+00
    2.310853E+01    8.213274E+00
    2.327527E+01    6.410835E+00
    2.317517E+01    4.604165E+00
    2.281239E+01    2.841563E+00
    2.220116E+01    1.169082E+00
    2.136485E+01   -3.717725E-01
    2.033457E+01   -1.746006E+00
    1.914719E+01   -2.926612E+00
    1.784324E+01   -3.895487E+00
    1.646462E+01   -4.643728E+00
    1.505241E+01   -5.171353E+00
    1.364496E+01   -5.486487E+00
    1.227625E+01   -5.604139E+00
    1.097472E+01   -5.544680E+00
    9.762643E+00   -5.332186E+00
    8.655821E+00   -4.992768E+00
    7.663818E+00   -4.553010E+00
    6.790480E+00   -4.038620E+00
    6.034724E+00   -3.473349E+00
    5.391481E+00   -2.878215E+00
    4.852695E+00   -2.271029E+00
    4.408312E+00   -1.666203E+00
    4.047172E+00   -1.074793E+00
    3.757776E+00   -5.047299E-01
    3.528902E+00    3.882418E-02
    3.350052E+00    5.530445E-01
    3.211757E+00    1.036986E+00
    3.105737E+00    1.491139E+00
    3.024955E+00    1.917017E+00
    2.963591E+00    2.316806E+00
    2.916949E+00    2.693077E+00
    2.881333E+00    3.048554E+00
    2.853903E+00    3.385948E+00
    2.832528E+00    3.707849E+00
    2.815645E+00    4.016648E+00
    2.802136E+00    4.314507E+00
    2.791213E+00    4.603351E+00
    2.782329E+00    4.884875E+00
    2.775109E+00    5.160574E+00
    2.769292E+00    5.431767E+00
    2.764691E+00    5.699631E+00
    2.761172E+00    5.965241E+00
    2.758633E+00    6.229589E+00
    2.757004E+00    6.493624E+00
    2.756239E+00    6.758262E+00
    2.756325E+00    7.024417E+00
    2.757283E+00    7.293007E+00
    2.759183E+00    7.564975E+00
    2.762146E+00    7.841296E+00
    2.766364E+00    8.122991E+00
    2.772114E+00    8.411137E+00
    2.779778E+00    8.706878E+00
    2.789878E+00    9.011428E+00
    2.803109E+00    9.326078E+00
    2.820388E+00    9.652185E+00
    2.842911E+00    9.991152E+00
    2.872211E+00    1.034439E+01
    2.910221E+00    1.071323E+01
    2.959332E+00    1.109888E+01
    3.022422E+00    1.150222E+01
