 Vespa-Simulation Mixed Metabolite Output
 This file was generated by Vespa-Simulation. You can learn about and download Vespa here:
https://github.com/vespa-mrs/vespa/tree/main/vespa

 
 Output Path/Filename = /home/stud/casperc/bhome/Project1(DeepFit)/DeepFit-data-generation/Initial_spectra_linewidth_10_TE30_1024p
 Output Loop Values = (1,1,1)  ( Loop 1 = 15, Loop 2 = 15, Loop3 Inactive )
 Output Comment
 ---------------------------------------------------------------------------
 
 
 Experiment Information
 ---------------------------------------------------------------------------
 --- Experiment 32780d98-dc11-42ab-ab27-92876fb0934a ---
 Name: PRESS_3T_30TE
 Public: False
 Created: 2023-12-19T15:15:29
 Comment (abbr.): LC-Model basis set clone +2-HG
 PI: Casper Cappelen
 b0: 127.740000
 Peak Search PPM low/high: 0.000000 / 10.000000
 Blend tol. PPM/phase: 0.001500 / 50.000000
 Pulse seq.: 43be13ae-de9a-40a1-9a2d-c872d8bjs100 (PRESS Ideal)
 0 User static parameters: 
 19 Metabolites: 2-hydroxyglutarate, GPC-gp, NAAG-truncated, alanine, aspartate, creatine, gaba, glucose-alpha, glucose-beta, glutamate, glutamine, glutathione-glutamate, lactate, myo-inositol, n-acetylaspartate, phosphocreatine, phosphorylcholine-notrimethyl, scyllo-inositol, taurine
 19 Simulations: (not shown)
 
 Metabolite Formatting Information
 ---------------------------------------------------------------------------
 Name=GPC-gp Abbr=GPC Scale=1.0 Shift=0.0 PPM Start=0.0 PPM End=4.5
 Name=NAAG-truncated Abbr=NAAG Scale=1.0 Shift=0.0 PPM Start=0.0 PPM End=4.5
 Name=alanine Abbr=Ala Scale=1.0 Shift=0.0 PPM Start=0.0 PPM End=4.5
 Name=aspartate Abbr=Asp Scale=1.0 Shift=0.0 PPM Start=0.0 PPM End=4.5
 Name=creatine Abbr=Cr Scale=1.0 Shift=0.1 PPM Start=0.0 PPM End=4.5
 Name=gaba Abbr=GABA Scale=1.0 Shift=0.0 PPM Start=0.0 PPM End=4.5
 Name=glutamate Abbr=Glu Scale=1.0 Shift=0.0 PPM Start=0.0 PPM End=4.5
 Name=glutamine Abbr=Gln Scale=1.0 Shift=0.0 PPM Start=0.0 PPM End=4.5
 Name=glutathione-glutamate Abbr=GSH Scale=1.0 Shift=0.0 PPM Start=0.0 PPM End=4.5
 Name=lactate Abbr=Lac Scale=1.0 Shift=0.0 PPM Start=0.0 PPM End=4.5
 Name=myo-inositol Abbr=mI Scale=1.0 Shift=0.0 PPM Start=0.0 PPM End=4.5
 Name=n-acetylaspartate Abbr=NAA Scale=1.0 Shift=0.0 PPM Start=0.0 PPM End=4.5
 Name=phosphocreatine Abbr=PCr Scale=1.0 Shift=0.0 PPM Start=0.0 PPM End=4.5
 Name=phosphorylcholine-notrimethyl Abbr=PCho Scale=1.0 Shift=0.0 PPM Start=0.0 PPM End=4.5
 Name=taurine Abbr=Tau Scale=1.0 Shift=0.0 PPM Start=0.0 PPM End=4.5
 Name=glucose-alpha+glucose-beta Abbr=Glc Scale=1.0 Shift=0.0 PPM Start=0.0 PPM End=4.5
   Mixture of [metab*scale] = glucose-alpha*1.000000 + glucose-beta*1.000000
 
 ===========================================================================
 This LCModel format RAW file was created using the 
 Vespa-Simulation spectral simulation program using 
 the following settings and parameters 
 
 Sweep Width = 574.83 Hz 
 Vector Size = 1024 points 
 Apodization = 10.0 Hz Gaussian broadening
 B0 Field    = 127.74 MHz 
 Ref Singlet = False
  
 $NMID ID='NAA'
 FMTDAT='(2E16.6)'
 VOLUME=1.0
 TRAMP=1.0
 $END
    4.737617E+00    1.122006E-01
   -3.324001E+00   -1.397916E+00
    2.307649E+00    2.783500E+00
   -6.559299E-02   -2.067637E+00
   -1.640930E+00    1.550312E+00
    2.208836E+00    5.840507E-01
   -2.258688E+00   -2.008782E+00
    6.980711E-01    3.091117E+00
    6.423231E-01   -3.199952E+00
   -2.159658E+00    2.060121E+00
    2.708084E+00   -6.234330E-01
   -2.284000E+00   -1.115688E+00
    1.145614E+00    2.139670E+00
    4.499947E-01   -2.297186E+00
   -1.758687E+00    1.598745E+00
    2.352675E+00   -2.568450E-01
   -2.166616E+00   -1.098812E+00
    1.136011E+00    1.961482E+00
    1.233567E-01   -2.161455E+00
   -1.255419E+00    1.443732E+00
    1.872128E+00   -3.824582E-01
   -1.687341E+00   -8.455947E-01
    1.045149E+00    1.645177E+00
   -1.585473E-02   -1.809540E+00
   -7.860107E-01    1.380781E+00
    1.211836E+00   -4.575467E-01
   -1.065252E+00   -4.716848E-01
    4.638129E-01    1.196956E+00
    3.185649E-01   -1.416630E+00
   -1.006671E+00    1.176283E+00
    1.342934E+00   -5.916209E-01
   -1.255065E+00   -4.723686E-02
    8.048616E-01    5.349485E-01
   -2.074997E-01   -6.748370E-01
   -3.511341E-01    4.990630E-01
    6.394067E-01   -8.800189E-02
   -6.578187E-01   -3.716397E-01
    3.915660E-01    6.898466E-01
   -2.153432E-02   -8.047663E-01
   -3.204139E-01    6.572299E-01
    5.155079E-01   -3.735446E-01
   -4.980673E-01    4.153299E-02
    3.237798E-01    2.095519E-01
   -6.331422E-02   -3.078349E-01
   -1.809087E-01    2.571358E-01
    3.159362E-01   -1.040689E-01
   -3.328180E-01   -8.700240E-02
    2.349016E-01    2.110320E-01
   -7.455557E-02   -2.701225E-01
   -5.816202E-02    2.147773E-01
    1.647000E-01   -1.082465E-01
   -1.611911E-01   -9.429481E-03
    1.223489E-01    1.172677E-01
   -3.130230E-02   -1.394086E-01
   -5.336476E-02    1.404537E-01
    9.409255E-02   -7.014434E-02
   -1.164046E-01    1.200439E-02
    7.132219E-02    4.139376E-02
   -3.676123E-02   -6.923520E-02
   -2.005178E-02    5.092246E-02
    4.660398E-02   -3.338939E-02
   -5.261746E-02   -1.342986E-02
    4.551915E-02    3.246592E-02
   -1.453814E-02   -4.899504E-02
   -8.236086E-04    4.307778E-02
    2.252201E-02   -2.429605E-02
   -2.205808E-02    8.357078E-03
    1.771100E-02    1.280731E-02
   -7.006134E-03   -1.697523E-02
   -5.875638E-03    1.968012E-02
    1.033872E-02   -1.184919E-02
   -1.382276E-02    3.341314E-03
    8.715703E-03    3.389487E-03
   -3.597634E-03   -8.349917E-03
   -2.372525E-03    7.596597E-03
    6.282815E-03   -5.610925E-03
   -6.896212E-03    1.712381E-03
    5.676141E-03    1.402269E-03
   -2.896563E-03   -2.922626E-03
    2.734589E-05    3.014536E-03
    1.713852E-03   -1.889777E-03
   -2.567642E-03    1.704127E-04
    2.137352E-03    9.049602E-04
   -1.103110E-03   -1.803704E-03
    2.076347E-04    1.566749E-03
    7.701899E-04   -1.118663E-03
   -8.262565E-04    4.219856E-04
    8.720730E-04    2.823476E-04
   -3.851383E-04   -4.458937E-04
   -5.610830E-06    6.417878E-04
    2.594115E-04   -3.138503E-04
   -4.661881E-04    1.494005E-04
    3.131230E-04    1.169749E-04
   -2.684612E-04   -2.442637E-04
    3.709886E-05    2.117293E-04
    4.113772E-05   -1.965881E-04
   -1.028865E-04    3.740636E-05
    1.086850E-04    5.937684E-06
   -4.052926E-05   -8.494144E-05
    1.956199E-05    8.074587E-05
    4.149915E-05   -5.654306E-05
   -3.856860E-05    3.028054E-05
    4.223592E-05    1.442731E-05
   -2.360393E-05   -2.221947E-05
    3.105330E-06    3.592971E-05
    5.283714E-06   -2.463732E-05
   -1.504962E-05    1.569159E-05
    9.377113E-06   -5.135080E-06
   -6.220674E-06   -3.154350E-06
   -1.216951E-06    4.186346E-06
    5.299020E-06   -4.814492E-06
   -6.801111E-06    1.446314E-06
    6.564029E-06    4.146245E-07
   -4.157991E-06   -2.070989E-06
    2.159437E-06    2.318247E-06
   -2.127221E-07   -1.643260E-06
   -6.762539E-07    7.365640E-07
    8.968394E-07    1.827637E-07
   -6.157956E-07   -6.850803E-07
    1.889181E-07    8.055527E-07
    1.828425E-07   -6.387453E-07
   -3.369832E-07    3.495499E-07
    3.491042E-07   -6.513101E-08
   -2.241500E-07   -9.290081E-08
    8.302719E-08    1.692280E-07
    2.617606E-08   -1.300813E-07
   -9.175778E-08    7.384703E-08
    8.924474E-08   -5.976738E-09
   -7.015404E-08   -3.546769E-08
    2.957749E-08    4.572950E-08
   -2.276519E-09   -4.038779E-08
   -1.429836E-08    1.953451E-08
    1.804683E-08   -3.590088E-09
   -1.235634E-08   -8.873695E-09
    5.572516E-09    1.268540E-08
    1.075589E-09   -1.107530E-08
   -4.062086E-09    6.924031E-09
    4.372975E-09   -2.388863E-09
   -2.940812E-09   -7.073723E-10
    9.623404E-10    2.009513E-09
    6.106244E-10   -2.098410E-09
   -1.302019E-09    1.321568E-09
    1.444227E-09   -5.179648E-10
   -9.695658E-10   -6.237841E-11
    5.231470E-10    3.747004E-10
   -7.501619E-11   -3.072811E-10
   -1.605501E-10    2.204088E-10
    2.047455E-10   -1.595879E-11
   -1.891815E-10   -7.209472E-11
    7.573064E-11    1.193177E-10
   -2.218393E-11   -1.111561E-10
   -3.512126E-11    6.032168E-11
    4.182867E-11   -3.081848E-11
   -3.286802E-11   -7.577162E-12
    1.963938E-11    1.404310E-11
   -8.381284E-13   -1.757005E-11
   -4.166464E-12    1.094562E-11
    9.201040E-12   -3.343675E-12
   -6.249592E-12   -4.756245E-13
    3.736924E-12    3.847411E-12
   -9.810003E-13   -2.949004E-12
   -9.428892E-13    2.342384E-12
    1.156796E-12   -7.556130E-13
   -1.208255E-12   -1.419177E-13
    5.273611E-13    5.472115E-13
   -1.535369E-13   -6.464237E-13
   -1.635522E-13    3.913565E-13
    2.512202E-13   -2.089334E-13
   -2.009041E-13    9.352025E-15
    1.265978E-13    6.378849E-14
   -3.400184E-14   -8.016197E-14
   -1.099724E-14    5.703369E-14
    3.185270E-14   -2.133447E-14
   -2.794392E-14   -2.698916E-15
    1.554584E-14    1.560548E-14
   -3.844905E-15   -1.682181E-14
   -3.481654E-15    1.205252E-14
    6.099684E-15   -6.233129E-15
   -5.064076E-15    1.600487E-15
    3.144252E-15    9.423378E-16
   -1.042980E-15   -1.467983E-15
   -1.955902E-16    1.244000E-15
    6.536507E-16   -4.930509E-16
   -6.674653E-16    9.111833E-18
    3.645522E-16    2.813458E-16
   -1.381565E-16   -3.293080E-16
   -4.955418E-17    2.350804E-16
    1.045471E-16   -1.341887E-16
   -9.827731E-17    3.336460E-17
    6.289526E-17    9.980905E-18
   -2.197633E-17   -2.780154E-17
   -5.214186E-19    2.193805E-17
    1.246863E-17   -1.051831E-17
   -1.196529E-17    1.480414E-18
    8.096889E-18    4.015108E-18
   -3.428501E-18   -4.753341E-18
    2.038658E-19    3.762576E-18
    1.127929E-18   -1.929408E-18
   -1.327296E-18    5.229587E-19
    8.729884E-19    2.449372E-19
   -3.666517E-19   -4.796456E-19
    9.009721E-21    3.900367E-19
    1.513278E-19   -2.085287E-19
   -1.648679E-19    5.357055E-20
    1.134524E-19    3.393749E-20
   -5.237944E-20   -5.807755E-20
    8.671655E-21    4.821481E-20
    1.138365E-20   -2.663487E-20
