 Vespa-Simulation Mixed Metabolite Output
 This file was generated by Vespa-Simulation. You can learn about and download Vespa here:
https://github.com/vespa-mrs/vespa/tree/main/vespa

 
 Output Path/Filename = /home/stud/casperc/bhome/Project1(DeepFit)/DeepFit-data-generation/Initial_spectra_linewidth_10_TE30_1024p
 Output Loop Values = (1,1,1)  ( Loop 1 = 15, Loop 2 = 15, Loop3 Inactive )
 Output Comment
 ---------------------------------------------------------------------------
 
 
 Experiment Information
 ---------------------------------------------------------------------------
 --- Experiment 32780d98-dc11-42ab-ab27-92876fb0934a ---
 Name: PRESS_3T_30TE
 Public: False
 Created: 2023-12-19T15:15:29
 Comment (abbr.): LC-Model basis set clone +2-HG
 PI: Casper Cappelen
 b0: 127.740000
 Peak Search PPM low/high: 0.000000 / 10.000000
 Blend tol. PPM/phase: 0.001500 / 50.000000
 Pulse seq.: 43be13ae-de9a-40a1-9a2d-c872d8bjs100 (PRESS Ideal)
 0 User static parameters: 
 19 Metabolites: 2-hydroxyglutarate, GPC-gp, NAAG-truncated, alanine, aspartate, creatine, gaba, glucose-alpha, glucose-beta, glutamate, glutamine, glutathione-glutamate, lactate, myo-inositol, n-acetylaspartate, phosphocreatine, phosphorylcholine-notrimethyl, scyllo-inositol, taurine
 19 Simulations: (not shown)
 
 Metabolite Formatting Information
 ---------------------------------------------------------------------------
 Name=GPC-gp Abbr=GPC Scale=1.0 Shift=0.0 PPM Start=0.0 PPM End=4.5
 Name=NAAG-truncated Abbr=NAAG Scale=1.0 Shift=0.0 PPM Start=0.0 PPM End=4.5
 Name=alanine Abbr=Ala Scale=1.0 Shift=0.0 PPM Start=0.0 PPM End=4.5
 Name=aspartate Abbr=Asp Scale=1.0 Shift=0.0 PPM Start=0.0 PPM End=4.5
 Name=creatine Abbr=Cr Scale=1.0 Shift=0.1 PPM Start=0.0 PPM End=4.5
 Name=gaba Abbr=GABA Scale=1.0 Shift=0.0 PPM Start=0.0 PPM End=4.5
 Name=glutamate Abbr=Glu Scale=1.0 Shift=0.0 PPM Start=0.0 PPM End=4.5
 Name=glutamine Abbr=Gln Scale=1.0 Shift=0.0 PPM Start=0.0 PPM End=4.5
 Name=glutathione-glutamate Abbr=GSH Scale=1.0 Shift=0.0 PPM Start=0.0 PPM End=4.5
 Name=lactate Abbr=Lac Scale=1.0 Shift=0.0 PPM Start=0.0 PPM End=4.5
 Name=myo-inositol Abbr=mI Scale=1.0 Shift=0.0 PPM Start=0.0 PPM End=4.5
 Name=n-acetylaspartate Abbr=NAA Scale=1.0 Shift=0.0 PPM Start=0.0 PPM End=4.5
 Name=phosphocreatine Abbr=PCr Scale=1.0 Shift=0.0 PPM Start=0.0 PPM End=4.5
 Name=phosphorylcholine-notrimethyl Abbr=PCho Scale=1.0 Shift=0.0 PPM Start=0.0 PPM End=4.5
 Name=taurine Abbr=Tau Scale=1.0 Shift=0.0 PPM Start=0.0 PPM End=4.5
 Name=glucose-alpha+glucose-beta Abbr=Glc Scale=1.0 Shift=0.0 PPM Start=0.0 PPM End=4.5
   Mixture of [metab*scale] = glucose-alpha*1.000000 + glucose-beta*1.000000
 
 ===========================================================================
 This LCModel format RAW file was created using the 
 Vespa-Simulation spectral simulation program using 
 the following settings and parameters 
 
 Sweep Width = 574.83 Hz 
 Vector Size = 1024 points 
 Apodization = 10.0 Hz Gaussian broadening
 B0 Field    = 127.74 MHz 
 Ref Singlet = False
  
 This data has been FFTd to be in the FREQUENCY domain
 
 $NMID ID='NAA'
 FMTDAT='(2E16.6)'
 VOLUME=1.0
 TRAMP=1.0
 $END
    2.559617E+00    6.424905E-01
    2.566079E+00    6.643383E-01
    2.572880E+00    6.865974E-01
    2.580043E+00    7.092861E-01
    2.587593E+00    7.324240E-01
    2.595559E+00    7.560317E-01
    2.603973E+00    7.801310E-01
    2.612870E+00    8.047448E-01
    2.622286E+00    8.298976E-01
    2.632264E+00    8.556150E-01
    2.642851E+00    8.819243E-01
    2.654098E+00    9.088542E-01
    2.666063E+00    9.364352E-01
    2.678812E+00    9.646993E-01
    2.692416E+00    9.936803E-01
    2.706958E+00    1.023413E+00
    2.722533E+00    1.053936E+00
    2.739247E+00    1.085285E+00
    2.757223E+00    1.117499E+00
    2.776603E+00    1.150615E+00
    2.797553E+00    1.184667E+00
    2.820265E+00    1.219684E+00
    2.844961E+00    1.255683E+00
    2.871903E+00    1.292668E+00
    2.901393E+00    1.330614E+00
    2.933782E+00    1.369462E+00
    2.969467E+00    1.409101E+00
    3.008899E+00    1.449345E+00
    3.052571E+00    1.489917E+00
    3.101010E+00    1.530416E+00
    3.154753E+00    1.570289E+00
    3.214317E+00    1.608807E+00
    3.280148E+00    1.645037E+00
    3.352563E+00    1.677831E+00
    3.431670E+00    1.705831E+00
    3.517289E+00    1.727495E+00
    3.608864E+00    1.741159E+00
    3.705382E+00    1.745125E+00
    3.805322E+00    1.737793E+00
    3.906631E+00    1.717823E+00
    4.006765E+00    1.684314E+00
    4.102782E+00    1.636991E+00
    4.191513E+00    1.576367E+00
    4.269803E+00    1.503858E+00
    4.334798E+00    1.421819E+00
    4.384261E+00    1.333479E+00
    4.416874E+00    1.242762E+00
    4.432488E+00    1.153993E+00
    4.432258E+00    1.071510E+00
    4.418656E+00    9.992241E-01
    4.395306E+00    9.401715E-01
    4.366666E+00    8.961356E-01
    4.337571E+00    8.673867E-01
    4.312693E+00    8.525997E-01
    4.295977E+00    8.489754E-01
    4.290157E+00    8.525647E-01
    4.296399E+00    8.587647E-01
    4.314152E+00    8.629231E-01
    4.341236E+00    8.609682E-01
    4.374154E+00    8.499730E-01
    4.408605E+00    8.285678E-01
    4.440114E+00    7.971377E-01
    4.464699E+00    7.577711E-01
    4.479480E+00    7.139639E-01
    4.483129E+00    6.701187E-01
    4.476116E+00    6.309095E-01
    4.460703E+00    6.005984E-01
    4.440688E+00    5.823996E-01
    4.420940E+00    5.779739E-01
    4.406783E+00    5.871210E-01
    4.403300E+00    6.077096E-01
    4.414664E+00    6.358539E-01
    4.443557E+00    6.663170E-01
    4.490766E+00    6.930944E-01
    4.555006E+00    7.101069E-01
    4.632978E+00    7.119240E-01
    4.719698E+00    6.944267E-01
    4.809021E+00    6.553290E-01
    4.894333E+00    5.944870E-01
    4.969316E+00    5.139507E-01
    5.028689E+00    4.177427E-01
    5.068839E+00    3.113843E-01
    5.088236E+00    2.012247E-01
    5.087594E+00    9.365819E-02
    5.069735E+00   -5.666622E-03
    5.039174E+00   -9.253683E-02
    5.001490E+00   -1.646685E-01
    4.962561E+00   -2.219348E-01
    4.927771E+00   -2.662998E-01
    4.901313E+00   -3.014726E-01
    4.885670E+00   -3.323384E-01
    4.881347E+00   -3.642537E-01
    4.886879E+00   -4.023113E-01
    4.899102E+00   -4.506784E-01
    4.913624E+00   -5.120946E-01
    4.925426E+00   -5.875867E-01
    4.929499E+00   -6.764208E-01
    4.921419E+00   -7.762752E-01
    4.897811E+00   -8.835890E-01
    4.856632E+00   -9.940211E-01
    4.797274E+00   -1.102946E+00
    4.720499E+00   -1.205923E+00
    4.628227E+00   -1.299078E+00
    4.523244E+00   -1.379376E+00
    4.408859E+00   -1.444765E+00
    4.288577E+00   -1.494194E+00
    4.165804E+00   -1.527544E+00
    4.043627E+00   -1.545476E+00
    3.924662E+00   -1.549255E+00
    3.810975E+00   -1.540548E+00
    3.704065E+00   -1.521248E+00
    3.604901E+00   -1.493319E+00
    3.513973E+00   -1.458669E+00
    3.431380E+00   -1.419071E+00
    3.356903E+00   -1.376099E+00
    3.290090E+00   -1.331104E+00
    3.230324E+00   -1.285197E+00
    3.176887E+00   -1.239252E+00
    3.129010E+00   -1.193919E+00
    3.085923E+00   -1.149641E+00
    3.046889E+00   -1.106671E+00
    3.011239E+00   -1.065109E+00
    2.978392E+00   -1.024923E+00
    2.947877E+00   -9.859909E-01
    2.919336E+00   -9.481290E-01
    2.892524E+00   -9.111318E-01
    2.867304E+00   -8.748017E-01
    2.843622E+00   -8.389755E-01
    2.821489E+00   -8.035440E-01
    2.800952E+00   -7.684619E-01
    2.782069E+00   -7.337490E-01
    2.764884E+00   -6.994836E-01
    2.749409E+00   -6.657884E-01
    2.735610E+00   -6.328129E-01
    2.723405E+00   -6.007134E-01
    2.712666E+00   -5.696343E-01
    2.703223E+00   -5.396931E-01
    2.694884E+00   -5.109689E-01
    2.687440E+00   -4.834968E-01
    2.680685E+00   -4.572681E-01
    2.674430E+00   -4.322336E-01
    2.668505E+00   -4.083115E-01
    2.662774E+00   -3.853968E-01
    2.657133E+00   -3.633710E-01
    2.651509E+00   -3.421115E-01
    2.645859E+00   -3.214999E-01
    2.640166E+00   -3.014274E-01
    2.634429E+00   -2.817992E-01
    2.628663E+00   -2.625359E-01
    2.622891E+00   -2.435743E-01
    2.617139E+00   -2.248657E-01
    2.611434E+00   -2.063747E-01
    2.605800E+00   -1.880766E-01
    2.600260E+00   -1.699551E-01
    2.594831E+00   -1.520000E-01
    2.589526E+00   -1.342057E-01
    2.584354E+00   -1.165691E-01
    2.579321E+00   -9.908871E-02
    2.574431E+00   -8.176391E-02
    2.569683E+00   -6.459409E-02
    2.565076E+00   -4.757845E-02
    2.560607E+00   -3.071580E-02
    2.556274E+00   -1.400446E-02
    2.552071E+00    2.557678E-03
    2.547995E+00    1.897319E-02
    2.544041E+00    3.524497E-02
    2.540205E+00    5.137618E-02
    2.536481E+00    6.737020E-02
    2.532866E+00    8.323050E-02
    2.529356E+00    9.896065E-02
    2.525946E+00    1.145643E-01
    2.522633E+00    1.300449E-01
    2.519412E+00    1.454063E-01
    2.516280E+00    1.606519E-01
    2.513233E+00    1.757855E-01
    2.510269E+00    1.908105E-01
    2.507383E+00    2.057304E-01
    2.504573E+00    2.205489E-01
    2.501837E+00    2.352691E-01
    2.499171E+00    2.498945E-01
    2.496573E+00    2.644282E-01
    2.494041E+00    2.788732E-01
    2.491572E+00    2.932325E-01
    2.489164E+00    3.075089E-01
    2.486815E+00    3.217052E-01
    2.484523E+00    3.358240E-01
    2.482286E+00    3.498680E-01
    2.480100E+00    3.638398E-01
    2.477966E+00    3.777419E-01
    2.475880E+00    3.915772E-01
    2.473840E+00    4.053480E-01
    2.471846E+00    4.190571E-01
    2.469895E+00    4.327070E-01
    2.467986E+00    4.463002E-01
    2.466118E+00    4.598390E-01
    2.464289E+00    4.733259E-01
    2.462498E+00    4.867629E-01
    2.460745E+00    5.001523E-01
    2.459027E+00    5.134962E-01
    2.457344E+00    5.267965E-01
    2.455696E+00    5.400552E-01
    2.454079E+00    5.532742E-01
    2.452495E+00    5.664553E-01
    2.450942E+00    5.796004E-01
    2.449419E+00    5.927112E-01
    2.447925E+00    6.057894E-01
