 Vespa-Simulation Mixed Metabolite Output
 This file was generated by Vespa-Simulation. You can learn about and download Vespa here:
https://github.com/vespa-mrs/vespa/tree/main/vespa

 
 Output Path/Filename = /home/stud/casperc/bhome/Project1(DeepFit)/DeepFit-data-generation/Initial_spectra_linewidth_10_TE30_1024p
 Output Loop Values = (1,1,1)  ( Loop 1 = 15, Loop 2 = 15, Loop3 Inactive )
 Output Comment
 ---------------------------------------------------------------------------
 
 
 Experiment Information
 ---------------------------------------------------------------------------
 --- Experiment 32780d98-dc11-42ab-ab27-92876fb0934a ---
 Name: PRESS_3T_30TE
 Public: False
 Created: 2023-12-19T15:15:29
 Comment (abbr.): LC-Model basis set clone +2-HG
 PI: Casper Cappelen
 b0: 127.740000
 Peak Search PPM low/high: 0.000000 / 10.000000
 Blend tol. PPM/phase: 0.001500 / 50.000000
 Pulse seq.: 43be13ae-de9a-40a1-9a2d-c872d8bjs100 (PRESS Ideal)
 0 User static parameters: 
 19 Metabolites: 2-hydroxyglutarate, GPC-gp, NAAG-truncated, alanine, aspartate, creatine, gaba, glucose-alpha, glucose-beta, glutamate, glutamine, glutathione-glutamate, lactate, myo-inositol, n-acetylaspartate, phosphocreatine, phosphorylcholine-notrimethyl, scyllo-inositol, taurine
 19 Simulations: (not shown)
 
 Metabolite Formatting Information
 ---------------------------------------------------------------------------
 Name=GPC-gp Abbr=GPC Scale=1.0 Shift=0.0 PPM Start=0.0 PPM End=4.5
 Name=NAAG-truncated Abbr=NAAG Scale=1.0 Shift=0.0 PPM Start=0.0 PPM End=4.5
 Name=alanine Abbr=Ala Scale=1.0 Shift=0.0 PPM Start=0.0 PPM End=4.5
 Name=aspartate Abbr=Asp Scale=1.0 Shift=0.0 PPM Start=0.0 PPM End=4.5
 Name=creatine Abbr=Cr Scale=1.0 Shift=0.1 PPM Start=0.0 PPM End=4.5
 Name=gaba Abbr=GABA Scale=1.0 Shift=0.0 PPM Start=0.0 PPM End=4.5
 Name=glutamate Abbr=Glu Scale=1.0 Shift=0.0 PPM Start=0.0 PPM End=4.5
 Name=glutamine Abbr=Gln Scale=1.0 Shift=0.0 PPM Start=0.0 PPM End=4.5
 Name=glutathione-glutamate Abbr=GSH Scale=1.0 Shift=0.0 PPM Start=0.0 PPM End=4.5
 Name=lactate Abbr=Lac Scale=1.0 Shift=0.0 PPM Start=0.0 PPM End=4.5
 Name=myo-inositol Abbr=mI Scale=1.0 Shift=0.0 PPM Start=0.0 PPM End=4.5
 Name=n-acetylaspartate Abbr=NAA Scale=1.0 Shift=0.0 PPM Start=0.0 PPM End=4.5
 Name=phosphocreatine Abbr=PCr Scale=1.0 Shift=0.0 PPM Start=0.0 PPM End=4.5
 Name=phosphorylcholine-notrimethyl Abbr=PCho Scale=1.0 Shift=0.0 PPM Start=0.0 PPM End=4.5
 Name=taurine Abbr=Tau Scale=1.0 Shift=0.0 PPM Start=0.0 PPM End=4.5
 Name=glucose-alpha+glucose-beta Abbr=Glc Scale=1.0 Shift=0.0 PPM Start=0.0 PPM End=4.5
   Mixture of [metab*scale] = glucose-alpha*1.000000 + glucose-beta*1.000000
 
 ===========================================================================
 This LCModel format RAW file was created using the 
 Vespa-Simulation spectral simulation program using 
 the following settings and parameters 
 
 Sweep Width = 574.83 Hz 
 Vector Size = 1024 points 
 Apodization = 10.0 Hz Gaussian broadening
 B0 Field    = 127.74 MHz 
 Ref Singlet = False
  
 $NMID ID='NAAG'
 FMTDAT='(2E16.6)'
 VOLUME=1.0
 TRAMP=1.0
 $END
    1.000000E+00   -2.775558E-17
   -8.411712E-01   -5.387788E-01
    4.163900E-01    9.044634E-01
    1.364632E-01   -9.809224E-01
   -6.391515E-01    7.467674E-01
    9.319268E-01   -2.813680E-01
   -9.254990E-01   -2.625876E-01
    6.288602E-01    7.102953E-01
   -1.441022E-01   -9.223069E-01
   -3.692986E-01    8.388985E-01
    7.480031E-01   -4.969777E-01
   -8.778761E-01    1.471281E-02
    7.289207E-01    4.498388E-01
   -3.613406E-01   -7.514713E-01
   -9.814712E-02    8.040035E-01
    5.004438E-01   -6.049333E-01
   -7.231743E-01    2.316334E-01
    7.083154E-01    1.882011E-01
   -4.766651E-01   -5.205527E-01
    1.159220E-01    6.683127E-01
    2.520475E-01   -5.996148E-01
   -5.125520E-01    3.530586E-01
    5.939267E-01   -1.991348E-02
   -4.867419E-01   -2.892291E-01
    2.413591E-01    4.811428E-01
    5.337551E-02   -5.078621E-01
   -3.018486E-01    3.775866E-01
    4.324731E-01   -1.465528E-01
   -4.177681E-01   -1.035393E-01
    2.783548E-01    2.939343E-01
   -7.119303E-02   -3.732049E-01
   -1.323664E-01    3.302763E-01
    2.706305E-01   -1.931858E-01
   -3.096698E-01    1.557917E-02
    2.504591E-01    1.432051E-01
   -1.241094E-01   -2.373931E-01
   -2.180331E-02    2.472284E-01
    1.402512E-01   -1.815971E-01
   -1.993084E-01    7.128674E-02
    1.898906E-01    4.369689E-02
   -1.252317E-01   -1.278771E-01
    3.343592E-02    1.606116E-01
    5.347858E-02   -1.401940E-01
   -1.101093E-01    8.141822E-02
    1.244316E-01   -8.353406E-03
   -9.931277E-02   -5.459556E-02
    4.913211E-02    9.026000E-02
    6.616210E-03   -9.275058E-02
   -5.019795E-02    6.729691E-02
    7.078560E-02   -2.666350E-02
   -6.651662E-02   -1.413774E-02
    4.340727E-02    4.286379E-02
   -1.202516E-02   -5.326784E-02
   -1.661921E-02    4.585960E-02
    3.452006E-02   -2.643088E-02
   -3.853265E-02    3.235940E-03
    3.034586E-02    1.602619E-02
   -1.497506E-02   -2.644575E-02
   -1.461137E-03    2.681647E-02
    1.383870E-02   -1.921716E-02
   -1.937375E-02    7.670657E-03
    1.795634E-02    3.503240E-03
   -1.159200E-02   -1.106955E-02
    3.314176E-03    1.361495E-02
    3.971382E-03   -1.156076E-02
   -8.338804E-03    6.609617E-03
    9.195864E-03   -9.276170E-04
   -7.145396E-03   -3.621866E-03
    3.514455E-03    5.970961E-03
    2.252642E-04   -5.975188E-03
   -2.938685E-03    4.228411E-03
    4.086248E-03   -1.697724E-03
   -3.735661E-03   -6.640678E-04
    2.385182E-03    2.202362E-03
   -7.005915E-04   -2.681800E-03
   -7.297581E-04    2.245872E-03
    1.552158E-03   -1.273201E-03
   -1.691304E-03    1.992772E-04
    1.296566E-03    6.300866E-04
   -6.351294E-04   -1.038860E-03
   -2.144974E-05    1.026051E-03
    4.806457E-04   -7.169239E-04
   -6.641881E-04    2.890674E-04
    5.989386E-04    9.613211E-05
   -3.781142E-04   -3.375965E-04
    1.136781E-04    4.070910E-04
    1.030502E-04   -3.362374E-04
   -2.226086E-04    1.889375E-04
    2.397255E-04   -3.233246E-05
   -1.812957E-04   -8.438595E-05
    8.839485E-05    1.392780E-04
    5.676937E-07   -1.357848E-04
   -6.054421E-05    9.366745E-05
    8.319386E-05   -3.788035E-05
   -7.400403E-05   -1.061191E-05
    4.618679E-05    3.986514E-05
   -1.416114E-05   -4.762344E-05
   -1.118101E-05    3.879381E-05
    2.460069E-05   -2.159760E-05
   -2.618606E-05    3.980239E-06
    1.953590E-05    8.697406E-06
   -9.473587E-06   -1.438934E-05
    1.744881E-07    1.384843E-05
    5.873993E-06   -9.429802E-06
   -8.030287E-06    3.820353E-06
    7.046882E-06    8.900977E-07
   -4.346757E-06   -3.626771E-06
    1.355475E-06    4.293370E-06
    9.319618E-07   -3.449267E-06
   -2.094617E-06    1.902094E-06
    2.204419E-06   -3.728802E-07
   -1.622265E-06   -6.898560E-07
    7.820376E-07    1.145508E-06
   -3.192358E-08   -1.088469E-06
   -4.388403E-07    7.315643E-07
    5.973401E-07   -2.965287E-07
   -5.171333E-07   -5.652144E-08
    3.152219E-07    2.541607E-07
   -9.970611E-08   -2.982837E-07
   -5.962312E-08    2.363503E-07
    1.374199E-07   -1.290469E-07
   -1.430133E-07    2.666656E-08
    1.038105E-07    4.210919E-08
   -4.972144E-08   -7.026893E-08
    3.041669E-09    6.593238E-08
    2.524936E-08   -4.373310E-08
   -3.424025E-08    1.771961E-08
    2.924618E-08    2.702518E-09
   -1.761388E-08   -1.372068E-08
    5.637026E-09    1.597063E-08
    2.926650E-09   -1.248083E-08
   -6.945923E-09    6.745577E-09
    7.150316E-09   -1.457381E-09
   -5.119424E-09   -1.977247E-09
    2.434706E-09    3.321635E-09
   -1.937915E-10   -3.077841E-09
   -1.118535E-09    2.014687E-09
    1.512513E-09   -8.150850E-10
   -1.274692E-09   -9.624845E-11
    7.583384E-10    5.706079E-10
   -2.450970E-10   -6.589574E-10
   -1.101746E-10    5.079087E-10
    2.704965E-10   -2.716612E-10
   -2.755060E-10    6.098580E-11
    1.945520E-10    7.142596E-11
   -9.183073E-11   -1.209874E-10
    8.839393E-12    1.107286E-10
    3.815209E-11   -7.152103E-11
   -5.148471E-11    2.886991E-11
    4.281583E-11    2.513727E-12
   -2.515773E-11   -1.827909E-11
    8.196104E-12    2.095280E-11
    3.176445E-12   -1.592916E-11
   -8.116380E-12    8.428611E-12
    8.180934E-12   -1.954971E-12
   -5.698002E-12   -1.983689E-12
    2.668422E-12    3.395388E-12
   -2.968137E-13   -3.070022E-12
   -1.002013E-12    1.956495E-12
    1.350518E-12   -7.872663E-13
   -1.108345E-12   -4.636050E-14
    6.431623E-13    4.509597E-13
   -2.108049E-13   -5.134339E-13
   -7.010064E-14    3.849978E-13
    1.876273E-13   -2.014819E-13
   -1.872081E-13    4.808263E-14
    1.286000E-13    4.237326E-14
   -5.972008E-14   -7.342863E-14
    7.451045E-15    6.559723E-14
    2.025954E-14   -4.124354E-14
   -2.729714E-14    1.653450E-14
    2.211083E-14    5.547203E-16
   -1.266880E-14   -8.570506E-15
    4.171553E-15    9.695526E-15
    1.181356E-15   -7.171243E-15
   -3.341218E-15    3.711317E-15
    3.301513E-15   -9.070691E-16
   -2.236717E-15   -6.957527E-16
    1.029606E-15    1.223572E-15
   -1.411553E-16   -1.080176E-15
   -3.152435E-16    6.700393E-16
    4.251933E-16   -2.673681E-16
   -3.399420E-16   -2.842532E-18
    1.922932E-16    1.254524E-16
   -6.353928E-17   -1.410859E-16
   -1.519453E-17    1.029400E-16
    4.584426E-17   -5.266728E-17
   -4.487038E-17    1.313857E-17
    2.998043E-17    8.778680E-18
   -1.367663E-17   -1.570847E-17
    2.024977E-18    1.370787E-17
    3.776425E-18   -8.387954E-18
   -5.103573E-18    3.329564E-18
    4.027802E-18   -3.367190E-20
   -2.249276E-18   -1.414017E-18
    7.446190E-19    1.582188E-18
    1.486785E-19   -1.138770E-18
   -4.845812E-19    5.758686E-19
    4.699465E-19   -1.462410E-19
   -3.096966E-19   -8.504865E-20
    1.399357E-19    1.553999E-19
   -2.210081E-20   -1.340630E-19
   -3.481616E-20    8.091931E-20
    4.720007E-20   -3.193903E-20
   -3.677914E-20    9.269704E-22
    2.027225E-20    1.227617E-20
   -6.716463E-21   -1.367316E-20
   -1.102795E-21    9.708576E-21
