 Vespa-Simulation Mixed Metabolite Output
 This file was generated by Vespa-Simulation. You can learn about and download Vespa here:
https://github.com/vespa-mrs/vespa/tree/main/vespa

 
 Output Path/Filename = /home/stud/casperc/bhome/Project1(DeepFit)/DeepFit-data-generation/Initial_spectra_linewidth_10_TE30_1024p
 Output Loop Values = (1,1,1)  ( Loop 1 = 15, Loop 2 = 15, Loop3 Inactive )
 Output Comment
 ---------------------------------------------------------------------------
 
 
 Experiment Information
 ---------------------------------------------------------------------------
 --- Experiment 32780d98-dc11-42ab-ab27-92876fb0934a ---
 Name: PRESS_3T_30TE
 Public: False
 Created: 2023-12-19T15:15:29
 Comment (abbr.): LC-Model basis set clone +2-HG
 PI: Casper Cappelen
 b0: 127.740000
 Peak Search PPM low/high: 0.000000 / 10.000000
 Blend tol. PPM/phase: 0.001500 / 50.000000
 Pulse seq.: 43be13ae-de9a-40a1-9a2d-c872d8bjs100 (PRESS Ideal)
 0 User static parameters: 
 19 Metabolites: 2-hydroxyglutarate, GPC-gp, NAAG-truncated, alanine, aspartate, creatine, gaba, glucose-alpha, glucose-beta, glutamate, glutamine, glutathione-glutamate, lactate, myo-inositol, n-acetylaspartate, phosphocreatine, phosphorylcholine-notrimethyl, scyllo-inositol, taurine
 19 Simulations: (not shown)
 
 Metabolite Formatting Information
 ---------------------------------------------------------------------------
 Name=GPC-gp Abbr=GPC Scale=1.0 Shift=0.0 PPM Start=0.0 PPM End=4.5
 Name=NAAG-truncated Abbr=NAAG Scale=1.0 Shift=0.0 PPM Start=0.0 PPM End=4.5
 Name=alanine Abbr=Ala Scale=1.0 Shift=0.0 PPM Start=0.0 PPM End=4.5
 Name=aspartate Abbr=Asp Scale=1.0 Shift=0.0 PPM Start=0.0 PPM End=4.5
 Name=creatine Abbr=Cr Scale=1.0 Shift=0.1 PPM Start=0.0 PPM End=4.5
 Name=gaba Abbr=GABA Scale=1.0 Shift=0.0 PPM Start=0.0 PPM End=4.5
 Name=glutamate Abbr=Glu Scale=1.0 Shift=0.0 PPM Start=0.0 PPM End=4.5
 Name=glutamine Abbr=Gln Scale=1.0 Shift=0.0 PPM Start=0.0 PPM End=4.5
 Name=glutathione-glutamate Abbr=GSH Scale=1.0 Shift=0.0 PPM Start=0.0 PPM End=4.5
 Name=lactate Abbr=Lac Scale=1.0 Shift=0.0 PPM Start=0.0 PPM End=4.5
 Name=myo-inositol Abbr=mI Scale=1.0 Shift=0.0 PPM Start=0.0 PPM End=4.5
 Name=n-acetylaspartate Abbr=NAA Scale=1.0 Shift=0.0 PPM Start=0.0 PPM End=4.5
 Name=phosphocreatine Abbr=PCr Scale=1.0 Shift=0.0 PPM Start=0.0 PPM End=4.5
 Name=phosphorylcholine-notrimethyl Abbr=PCho Scale=1.0 Shift=0.0 PPM Start=0.0 PPM End=4.5
 Name=taurine Abbr=Tau Scale=1.0 Shift=0.0 PPM Start=0.0 PPM End=4.5
 Name=glucose-alpha+glucose-beta Abbr=Glc Scale=1.0 Shift=0.0 PPM Start=0.0 PPM End=4.5
   Mixture of [metab*scale] = glucose-alpha*1.000000 + glucose-beta*1.000000
 
 ===========================================================================
 This LCModel format RAW file was created using the 
 Vespa-Simulation spectral simulation program using 
 the following settings and parameters 
 
 Sweep Width = 574.83 Hz 
 Vector Size = 1024 points 
 Apodization = 10.0 Hz Gaussian broadening
 B0 Field    = 127.74 MHz 
 Ref Singlet = False
  
 This data has been FFTd to be in the FREQUENCY domain
 
 $NMID ID='NAAG'
 FMTDAT='(2E16.6)'
 VOLUME=1.0
 TRAMP=1.0
 $END
    4.999908E-01   -1.464856E-01
    4.999910E-01   -1.448192E-01
    4.999913E-01   -1.431558E-01
    4.999919E-01   -1.414954E-01
    4.999928E-01   -1.398380E-01
    4.999938E-01   -1.381837E-01
    4.999949E-01   -1.365324E-01
    4.999962E-01   -1.348841E-01
    4.999974E-01   -1.332388E-01
    4.999985E-01   -1.315965E-01
    4.999995E-01   -1.299571E-01
    5.000003E-01   -1.283204E-01
    5.000008E-01   -1.266864E-01
    5.000012E-01   -1.250550E-01
    5.000014E-01   -1.234260E-01
    5.000014E-01   -1.217994E-01
    5.000013E-01   -1.201751E-01
    5.000011E-01   -1.185532E-01
    5.000010E-01   -1.169334E-01
    5.000008E-01   -1.153160E-01
    5.000007E-01   -1.137007E-01
    5.000006E-01   -1.120877E-01
    5.000006E-01   -1.104769E-01
    5.000005E-01   -1.088682E-01
    5.000005E-01   -1.072617E-01
    5.000004E-01   -1.056573E-01
    5.000004E-01   -1.040549E-01
    5.000004E-01   -1.024546E-01
    5.000004E-01   -1.008563E-01
    5.000005E-01   -9.925999E-02
    5.000005E-01   -9.766559E-02
    5.000007E-01   -9.607313E-02
    5.000008E-01   -9.448259E-02
    5.000010E-01   -9.289393E-02
    5.000012E-01   -9.130715E-02
    5.000013E-01   -8.972221E-02
    5.000014E-01   -8.813906E-02
    5.000015E-01   -8.655767E-02
    5.000015E-01   -8.497799E-02
    5.000014E-01   -8.339998E-02
    5.000013E-01   -8.182358E-02
    5.000011E-01   -8.024875E-02
    5.000009E-01   -7.867545E-02
    5.000005E-01   -7.710364E-02
    5.000001E-01   -7.553326E-02
    4.999996E-01   -7.396428E-02
    4.999991E-01   -7.239664E-02
    4.999985E-01   -7.083028E-02
    4.999979E-01   -6.926517E-02
    4.999973E-01   -6.770124E-02
    4.999968E-01   -6.613844E-02
    4.999963E-01   -6.457675E-02
    4.999959E-01   -6.301615E-02
    4.999957E-01   -6.145664E-02
    4.999958E-01   -5.989822E-02
    4.999961E-01   -5.834094E-02
    4.999966E-01   -5.678483E-02
    4.999974E-01   -5.522994E-02
    4.999984E-01   -5.367631E-02
    4.999996E-01   -5.212396E-02
    5.000008E-01   -5.057291E-02
    5.000020E-01   -4.902313E-02
    5.000031E-01   -4.747458E-02
    5.000040E-01   -4.592718E-02
    5.000046E-01   -4.438085E-02
    5.000049E-01   -4.283546E-02
    5.000050E-01   -4.129089E-02
    5.000047E-01   -3.974703E-02
    5.000042E-01   -3.820376E-02
    5.000035E-01   -3.666099E-02
    5.000027E-01   -3.511865E-02
    5.000018E-01   -3.357670E-02
    5.000010E-01   -3.203512E-02
    5.000004E-01   -3.049391E-02
    5.000000E-01   -2.895311E-02
    4.999997E-01   -2.741275E-02
    4.999998E-01   -2.587288E-02
    5.000001E-01   -2.433355E-02
    5.000006E-01   -2.279480E-02
    5.000013E-01   -2.125667E-02
    5.000021E-01   -1.971917E-02
    5.000030E-01   -1.818229E-02
    5.000038E-01   -1.664601E-02
    5.000045E-01   -1.511029E-02
    5.000051E-01   -1.357506E-02
    5.000055E-01   -1.204024E-02
    5.000056E-01   -1.050574E-02
    5.000054E-01   -8.971485E-03
    5.000050E-01   -7.437364E-03
    5.000043E-01   -5.903286E-03
    5.000035E-01   -4.369165E-03
    5.000024E-01   -2.834924E-03
    5.000012E-01   -1.300496E-03
    5.000000E-01    2.341706E-04
    4.999987E-01    1.769114E-03
    4.999975E-01    3.304357E-03
    4.999964E-01    4.839906E-03
    4.999955E-01    6.375756E-03
    4.999948E-01    7.911886E-03
    4.999944E-01    9.448267E-03
    4.999943E-01    1.098486E-02
    4.999944E-01    1.252163E-02
    4.999947E-01    1.405854E-02
    4.999953E-01    1.559555E-02
    4.999961E-01    1.713264E-02
    4.999969E-01    1.866980E-02
    4.999978E-01    2.020706E-02
    4.999986E-01    2.174444E-02
    4.999993E-01    2.328200E-02
    4.999998E-01    2.481982E-02
    5.000001E-01    2.635799E-02
    5.000001E-01    2.789661E-02
    4.999998E-01    2.943580E-02
    4.999993E-01    3.097567E-02
    4.999987E-01    3.251631E-02
    4.999979E-01    3.405781E-02
    4.999970E-01    3.560023E-02
    4.999962E-01    3.714362E-02
    4.999955E-01    3.868797E-02
    4.999951E-01    4.023327E-02
    4.999949E-01    4.177947E-02
    4.999950E-01    4.332653E-02
    4.999954E-01    4.487438E-02
    4.999961E-01    4.642296E-02
    4.999971E-01    4.797222E-02
    4.999982E-01    4.952212E-02
    4.999994E-01    5.107266E-02
    5.000006E-01    5.262386E-02
    5.000018E-01    5.417578E-02
    5.000027E-01    5.572847E-02
    5.000035E-01    5.728205E-02
    5.000040E-01    5.883660E-02
    5.000042E-01    6.039224E-02
    5.000042E-01    6.194906E-02
    5.000040E-01    6.350715E-02
    5.000036E-01    6.506659E-02
    5.000031E-01    6.662742E-02
    5.000026E-01    6.818970E-02
    5.000020E-01    6.975344E-02
    5.000014E-01    7.131866E-02
    5.000008E-01    7.288537E-02
    5.000003E-01    7.445358E-02
    4.999999E-01    7.602330E-02
    4.999995E-01    7.759456E-02
    4.999992E-01    7.916736E-02
    4.999989E-01    8.074173E-02
    4.999987E-01    8.231770E-02
    4.999986E-01    8.389528E-02
    4.999985E-01    8.547448E-02
    4.999985E-01    8.705534E-02
    4.999986E-01    8.863785E-02
    4.999988E-01    9.022205E-02
    4.999990E-01    9.180794E-02
    4.999992E-01    9.339556E-02
    4.999994E-01    9.498494E-02
    4.999996E-01    9.657612E-02
    4.999998E-01    9.816915E-02
    4.999999E-01    9.976406E-02
    5.000000E-01    1.013609E-01
    5.000000E-01    1.029598E-01
    5.000000E-01    1.045607E-01
    5.000000E-01    1.061636E-01
    5.000000E-01    1.077687E-01
    5.000000E-01    1.093759E-01
    4.999999E-01    1.109852E-01
    4.999998E-01    1.125968E-01
    4.999997E-01    1.142107E-01
    4.999995E-01    1.158268E-01
    4.999993E-01    1.174454E-01
    4.999991E-01    1.190663E-01
    4.999990E-01    1.206898E-01
    4.999989E-01    1.223158E-01
    4.999989E-01    1.239443E-01
    4.999991E-01    1.255754E-01
    4.999995E-01    1.272090E-01
    5.000002E-01    1.288451E-01
    5.000010E-01    1.304837E-01
    5.000020E-01    1.321248E-01
    5.000031E-01    1.337683E-01
    5.000043E-01    1.354143E-01
    5.000055E-01    1.370627E-01
    5.000066E-01    1.387136E-01
    5.000076E-01    1.403672E-01
    5.000083E-01    1.420234E-01
    5.000088E-01    1.436824E-01
    5.000092E-01    1.453442E-01
    5.000092E-01    1.470091E-01
    5.000091E-01    1.486770E-01
    5.000088E-01    1.503480E-01
    5.000084E-01    1.520223E-01
    5.000078E-01    1.536997E-01
    5.000072E-01    1.553805E-01
    5.000065E-01    1.570646E-01
    5.000057E-01    1.587521E-01
    5.000050E-01    1.604430E-01
    5.000042E-01    1.621374E-01
    5.000035E-01    1.638352E-01
    5.000028E-01    1.655366E-01
    5.000022E-01    1.672415E-01
    5.000016E-01    1.689500E-01
    5.000011E-01    1.706620E-01
    5.000007E-01    1.723777E-01
    5.000004E-01    1.740971E-01
    5.000001E-01    1.758200E-01
    4.999999E-01    1.775467E-01
    4.999997E-01    1.792771E-01
