 Vespa-Simulation Mixed Metabolite Output
 This file was generated by Vespa-Simulation. You can learn about and download Vespa here:
https://github.com/vespa-mrs/vespa/tree/main/vespa

 
 Output Path/Filename = /home/stud/casperc/bhome/Project1(DeepFit)/DeepFit-data-generation/Initial_spectra_linewidth_10_TE30_1024p
 Output Loop Values = (1,1,1)  ( Loop 1 = 15, Loop 2 = 15, Loop3 Inactive )
 Output Comment
 ---------------------------------------------------------------------------
 
 
 Experiment Information
 ---------------------------------------------------------------------------
 --- Experiment 32780d98-dc11-42ab-ab27-92876fb0934a ---
 Name: PRESS_3T_30TE
 Public: False
 Created: 2023-12-19T15:15:29
 Comment (abbr.): LC-Model basis set clone +2-HG
 PI: Casper Cappelen
 b0: 127.740000
 Peak Search PPM low/high: 0.000000 / 10.000000
 Blend tol. PPM/phase: 0.001500 / 50.000000
 Pulse seq.: 43be13ae-de9a-40a1-9a2d-c872d8bjs100 (PRESS Ideal)
 0 User static parameters: 
 19 Metabolites: 2-hydroxyglutarate, GPC-gp, NAAG-truncated, alanine, aspartate, creatine, gaba, glucose-alpha, glucose-beta, glutamate, glutamine, glutathione-glutamate, lactate, myo-inositol, n-acetylaspartate, phosphocreatine, phosphorylcholine-notrimethyl, scyllo-inositol, taurine
 19 Simulations: (not shown)
 
 Metabolite Formatting Information
 ---------------------------------------------------------------------------
 Name=GPC-gp Abbr=GPC Scale=1.0 Shift=0.0 PPM Start=0.0 PPM End=4.5
 Name=NAAG-truncated Abbr=NAAG Scale=1.0 Shift=0.0 PPM Start=0.0 PPM End=4.5
 Name=alanine Abbr=Ala Scale=1.0 Shift=0.0 PPM Start=0.0 PPM End=4.5
 Name=aspartate Abbr=Asp Scale=1.0 Shift=0.0 PPM Start=0.0 PPM End=4.5
 Name=creatine Abbr=Cr Scale=1.0 Shift=0.1 PPM Start=0.0 PPM End=4.5
 Name=gaba Abbr=GABA Scale=1.0 Shift=0.0 PPM Start=0.0 PPM End=4.5
 Name=glutamate Abbr=Glu Scale=1.0 Shift=0.0 PPM Start=0.0 PPM End=4.5
 Name=glutamine Abbr=Gln Scale=1.0 Shift=0.0 PPM Start=0.0 PPM End=4.5
 Name=glutathione-glutamate Abbr=GSH Scale=1.0 Shift=0.0 PPM Start=0.0 PPM End=4.5
 Name=lactate Abbr=Lac Scale=1.0 Shift=0.0 PPM Start=0.0 PPM End=4.5
 Name=myo-inositol Abbr=mI Scale=1.0 Shift=0.0 PPM Start=0.0 PPM End=4.5
 Name=n-acetylaspartate Abbr=NAA Scale=1.0 Shift=0.0 PPM Start=0.0 PPM End=4.5
 Name=phosphocreatine Abbr=PCr Scale=1.0 Shift=0.0 PPM Start=0.0 PPM End=4.5
 Name=phosphorylcholine-notrimethyl Abbr=PCho Scale=1.0 Shift=0.0 PPM Start=0.0 PPM End=4.5
 Name=taurine Abbr=Tau Scale=1.0 Shift=0.0 PPM Start=0.0 PPM End=4.5
 Name=glucose-alpha+glucose-beta Abbr=Glc Scale=1.0 Shift=0.0 PPM Start=0.0 PPM End=4.5
   Mixture of [metab*scale] = glucose-alpha*1.000000 + glucose-beta*1.000000
 
 ===========================================================================
 This LCModel format RAW file was created using the 
 Vespa-Simulation spectral simulation program using 
 the following settings and parameters 
 
 Sweep Width = 574.83 Hz 
 Vector Size = 1024 points 
 Apodization = 10.0 Hz Gaussian broadening
 B0 Field    = 127.74 MHz 
 Ref Singlet = False
  
 This data has been FFTd to be in the FREQUENCY domain
 
 $NMID ID='PCho'
 FMTDAT='(2E16.6)'
 VOLUME=1.0
 TRAMP=1.0
 $END
    1.516221E+00    3.196740E+00
    1.518555E+00    3.229480E+00
    1.520979E+00    3.262863E+00
    1.523499E+00    3.296911E+00
    1.526118E+00    3.331647E+00
    1.528844E+00    3.367094E+00
    1.531680E+00    3.403279E+00
    1.534633E+00    3.440226E+00
    1.537710E+00    3.477964E+00
    1.540917E+00    3.516521E+00
    1.544262E+00    3.555928E+00
    1.547753E+00    3.596217E+00
    1.551397E+00    3.637422E+00
    1.555204E+00    3.679578E+00
    1.559185E+00    3.722724E+00
    1.563348E+00    3.766899E+00
    1.567706E+00    3.812145E+00
    1.572271E+00    3.858507E+00
    1.577057E+00    3.906033E+00
    1.582077E+00    3.954772E+00
    1.587349E+00    4.004779E+00
    1.592888E+00    4.056110E+00
    1.598716E+00    4.108827E+00
    1.604854E+00    4.162993E+00
    1.611324E+00    4.218678E+00
    1.618155E+00    4.275955E+00
    1.625376E+00    4.334901E+00
    1.633020E+00    4.395601E+00
    1.641125E+00    4.458143E+00
    1.649733E+00    4.522618E+00
    1.658891E+00    4.589127E+00
    1.668651E+00    4.657773E+00
    1.679069E+00    4.728666E+00
    1.690209E+00    4.801921E+00
    1.702137E+00    4.877661E+00
    1.714928E+00    4.956016E+00
    1.728657E+00    5.037124E+00
    1.743408E+00    5.121135E+00
    1.759269E+00    5.208210E+00
    1.776334E+00    5.298531E+00
    1.794703E+00    5.392295E+00
    1.814490E+00    5.489730E+00
    1.835823E+00    5.591092E+00
    1.858849E+00    5.696672E+00
    1.883750E+00    5.806804E+00
    1.910745E+00    5.921869E+00
    1.940111E+00    6.042295E+00
    1.972197E+00    6.168562E+00
    2.007446E+00    6.301197E+00
    2.046415E+00    6.440769E+00
    2.089805E+00    6.587877E+00
    2.138484E+00    6.743131E+00
    2.193514E+00    6.907121E+00
    2.256177E+00    7.080384E+00
    2.327994E+00    7.263350E+00
    2.410731E+00    7.456288E+00
    2.506401E+00    7.659235E+00
    2.617242E+00    7.871918E+00
    2.745675E+00    8.093680E+00
    2.894239E+00    8.323397E+00
    3.065500E+00    8.559419E+00
    3.261937E+00    8.799518E+00
    3.485802E+00    9.040873E+00
    3.738976E+00    9.280082E+00
    4.022815E+00    9.513222E+00
    4.338011E+00    9.735951E+00
    4.684471E+00    9.943643E+00
    5.061235E+00    1.013157E+01
    5.466443E+00    1.029509E+01
    5.897349E+00    1.042988E+01
    6.350396E+00    1.053211E+01
    6.821335E+00    1.059863E+01
    7.305398E+00    1.062713E+01
    7.797491E+00    1.061624E+01
    8.292413E+00    1.056554E+01
    8.785080E+00    1.047560E+01
    9.270729E+00    1.034790E+01
    9.745117E+00    1.018470E+01
    1.020467E+01    9.988939E+00
    1.064663E+01    9.764025E+00
    1.106910E+01    9.513632E+00
    1.147108E+01    9.241480E+00
    1.185245E+01    8.951116E+00
    1.221388E+01    8.645697E+00
    1.255667E+01    8.327807E+00
    1.288258E+01    7.999311E+00
    1.319361E+01    7.661276E+00
    1.349174E+01    7.313946E+00
    1.377871E+01    6.956801E+00
    1.405583E+01    6.588668E+00
    1.432379E+01    6.207893E+00
    1.458259E+01    5.812540E+00
    1.483152E+01    5.400594E+00
    1.506915E+01    4.970155E+00
    1.529345E+01    4.519599E+00
    1.550186E+01    4.047698E+00
    1.569140E+01    3.553696E+00
    1.585882E+01    3.037358E+00
    1.600062E+01    2.498998E+00
    1.611317E+01    1.939496E+00
    1.619281E+01    1.360323E+00
    1.623584E+01    7.635700E-01
    1.623866E+01    1.519805E-01
    1.619789E+01   -4.710216E-01
    1.611046E+01   -1.101322E+00
    1.597377E+01   -1.734135E+00
    1.578584E+01   -2.364059E+00
    1.554545E+01   -2.985172E+00
    1.525227E+01   -3.591161E+00
    1.490695E+01   -4.175487E+00
    1.451118E+01   -4.731562E+00
    1.406771E+01   -5.252939E+00
    1.358032E+01   -5.733502E+00
    1.305381E+01   -6.167655E+00
    1.249385E+01   -6.550498E+00
    1.190696E+01   -6.878000E+00
    1.130028E+01   -7.147144E+00
    1.068144E+01   -7.356065E+00
    1.005833E+01   -7.504146E+00
    9.438860E+00   -7.592074E+00
    8.830710E+00   -7.621846E+00
    8.241061E+00   -7.596712E+00
    7.676341E+00   -7.521048E+00
    7.142014E+00   -7.400178E+00
    6.642405E+00   -7.240138E+00
    6.180604E+00   -7.047406E+00
    5.758433E+00   -6.828622E+00
    5.376486E+00   -6.590313E+00
    5.034235E+00   -6.338645E+00
    4.730192E+00   -6.079227E+00
    4.462101E+00   -5.816959E+00
    4.227144E+00   -5.555951E+00
    4.022153E+00   -5.299491E+00
    3.843797E+00   -5.050065E+00
    3.688752E+00   -4.809419E+00
    3.553826E+00   -4.578649E+00
    3.436056E+00   -4.358303E+00
    3.332769E+00   -4.148486E+00
    3.241613E+00   -3.948973E+00
    3.160561E+00   -3.759297E+00
    3.087904E+00   -3.578832E+00
    3.022222E+00   -3.406860E+00
    2.962356E+00   -3.242623E+00
    2.907376E+00   -3.085359E+00
    2.856545E+00   -2.934331E+00
    2.809286E+00   -2.788845E+00
    2.765161E+00   -2.648257E+00
    2.723835E+00   -2.511985E+00
    2.685068E+00   -2.379504E+00
    2.648683E+00   -2.250352E+00
    2.614564E+00   -2.124125E+00
    2.582633E+00   -2.000474E+00
    2.552844E+00   -1.879102E+00
    2.525171E+00   -1.759762E+00
    2.499602E+00   -1.642253E+00
    2.476132E+00   -1.526411E+00
    2.454751E+00   -1.412112E+00
    2.435444E+00   -1.299257E+00
    2.418186E+00   -1.187777E+00
    2.402933E+00   -1.077618E+00
    2.389625E+00   -9.687366E-01
    2.378182E+00   -8.610946E-01
    2.368505E+00   -7.546498E-01
    2.360478E+00   -6.493497E-01
    2.353971E+00   -5.451245E-01
    2.348845E+00   -4.418821E-01
    2.344959E+00   -3.395034E-01
    2.342175E+00   -2.378397E-01
    2.340370E+00   -1.367115E-01
    2.339438E+00   -3.590928E-02
    2.339303E+00    6.480399E-02
    2.339926E+00    1.656881E-01
    2.341311E+00    2.670186E-01
    2.343508E+00    3.690782E-01
    2.346624E+00    4.721456E-01
    2.350816E+00    5.764835E-01
    2.356291E+00    6.823244E-01
    2.363302E+00    7.898579E-01
    2.372133E+00    8.992183E-01
    2.383087E+00    1.010475E+00
    2.396464E+00    1.123626E+00
    2.412542E+00    1.238601E+00
    2.431550E+00    1.355267E+00
    2.453653E+00    1.473443E+00
    2.478932E+00    1.592923E+00
    2.507373E+00    1.713503E+00
    2.538866E+00    1.835013E+00
    2.573211E+00    1.957349E+00
    2.610137E+00    2.080505E+00
    2.649329E+00    2.204598E+00
    2.690457E+00    2.329887E+00
    2.733217E+00    2.456777E+00
    2.777369E+00    2.585824E+00
    2.822768E+00    2.717719E+00
    2.869398E+00    2.853271E+00
    2.917395E+00    2.993386E+00
    2.967061E+00    3.139042E+00
    3.018875E+00    3.291265E+00
    3.073497E+00    3.451112E+00
    3.131776E+00    3.619664E+00
    3.194757E+00    3.798013E+00
    3.263696E+00    3.987267E+00
    3.340091E+00    4.188548E+00
    3.425726E+00    4.402989E+00
    3.522729E+00    4.631722E+00
    3.633653E+00    4.875839E+00
