 Vespa-Simulation Mixed Metabolite Output
 This file was generated by Vespa-Simulation. You can learn about and download Vespa here:
https://github.com/vespa-mrs/vespa/tree/main/vespa

 
 Output Path/Filename = /home/stud/casperc/bhome/Project1(DeepFit)/DeepFit-data-generation/Initial_spectra_linewidth_10_TE30_1024p
 Output Loop Values = (1,1,1)  ( Loop 1 = 15, Loop 2 = 15, Loop3 Inactive )
 Output Comment
 ---------------------------------------------------------------------------
 
 
 Experiment Information
 ---------------------------------------------------------------------------
 --- Experiment 32780d98-dc11-42ab-ab27-92876fb0934a ---
 Name: PRESS_3T_30TE
 Public: False
 Created: 2023-12-19T15:15:29
 Comment (abbr.): LC-Model basis set clone +2-HG
 PI: Casper Cappelen
 b0: 127.740000
 Peak Search PPM low/high: 0.000000 / 10.000000
 Blend tol. PPM/phase: 0.001500 / 50.000000
 Pulse seq.: 43be13ae-de9a-40a1-9a2d-c872d8bjs100 (PRESS Ideal)
 0 User static parameters: 
 19 Metabolites: 2-hydroxyglutarate, GPC-gp, NAAG-truncated, alanine, aspartate, creatine, gaba, glucose-alpha, glucose-beta, glutamate, glutamine, glutathione-glutamate, lactate, myo-inositol, n-acetylaspartate, phosphocreatine, phosphorylcholine-notrimethyl, scyllo-inositol, taurine
 19 Simulations: (not shown)
 
 Metabolite Formatting Information
 ---------------------------------------------------------------------------
 Name=GPC-gp Abbr=GPC Scale=1.0 Shift=0.0 PPM Start=0.0 PPM End=4.5
 Name=NAAG-truncated Abbr=NAAG Scale=1.0 Shift=0.0 PPM Start=0.0 PPM End=4.5
 Name=alanine Abbr=Ala Scale=1.0 Shift=0.0 PPM Start=0.0 PPM End=4.5
 Name=aspartate Abbr=Asp Scale=1.0 Shift=0.0 PPM Start=0.0 PPM End=4.5
 Name=creatine Abbr=Cr Scale=1.0 Shift=0.1 PPM Start=0.0 PPM End=4.5
 Name=gaba Abbr=GABA Scale=1.0 Shift=0.0 PPM Start=0.0 PPM End=4.5
 Name=glutamate Abbr=Glu Scale=1.0 Shift=0.0 PPM Start=0.0 PPM End=4.5
 Name=glutamine Abbr=Gln Scale=1.0 Shift=0.0 PPM Start=0.0 PPM End=4.5
 Name=glutathione-glutamate Abbr=GSH Scale=1.0 Shift=0.0 PPM Start=0.0 PPM End=4.5
 Name=lactate Abbr=Lac Scale=1.0 Shift=0.0 PPM Start=0.0 PPM End=4.5
 Name=myo-inositol Abbr=mI Scale=1.0 Shift=0.0 PPM Start=0.0 PPM End=4.5
 Name=n-acetylaspartate Abbr=NAA Scale=1.0 Shift=0.0 PPM Start=0.0 PPM End=4.5
 Name=phosphocreatine Abbr=PCr Scale=1.0 Shift=0.0 PPM Start=0.0 PPM End=4.5
 Name=phosphorylcholine-notrimethyl Abbr=PCho Scale=1.0 Shift=0.0 PPM Start=0.0 PPM End=4.5
 Name=taurine Abbr=Tau Scale=1.0 Shift=0.0 PPM Start=0.0 PPM End=4.5
 Name=glucose-alpha+glucose-beta Abbr=Glc Scale=1.0 Shift=0.0 PPM Start=0.0 PPM End=4.5
   Mixture of [metab*scale] = glucose-alpha*1.000000 + glucose-beta*1.000000
 
 ===========================================================================
 This LCModel format RAW file was created using the 
 Vespa-Simulation spectral simulation program using 
 the following settings and parameters 
 
 Sweep Width = 574.83 Hz 
 Vector Size = 1024 points 
 Apodization = 10.0 Hz Gaussian broadening
 B0 Field    = 127.74 MHz 
 Ref Singlet = False
  
 $NMID ID='PCho'
 FMTDAT='(2E16.6)'
 VOLUME=1.0
 TRAMP=1.0
 $END
    2.852322E+00    1.986768E-04
    1.318826E+00    2.187126E+00
   -8.344625E-01    1.585475E+00
   -7.580222E-01    5.041590E-02
    1.603216E-01    2.632861E-01
   -5.219686E-01    1.072779E+00
   -1.733475E+00    1.544703E-01
   -1.104552E+00   -1.528193E+00
    6.650682E-01   -1.518842E+00
    1.154935E+00   -1.275788E-01
    3.049234E-01    4.487834E-01
   -2.414764E-02   -7.028269E-02
    5.022703E-01   -1.341644E-01
    5.317074E-01    5.689768E-01
   -2.548877E-01    7.912159E-01
   -7.045975E-01    1.371187E-01
   -3.183531E-01   -3.943084E-01
    1.199092E-01   -2.442333E-01
    7.389376E-02    2.787138E-02
   -7.485083E-02   -2.563340E-02
    1.343593E-02   -1.342775E-01
    1.309854E-01   -4.679730E-02
    8.654779E-02    7.609840E-02
   -1.182412E-02    8.948088E-02
   -7.148096E-02    4.248884E-02
   -8.915911E-02   -4.010087E-02
   -9.918184E-03   -1.230202E-01
    1.259494E-01   -7.184676E-02
    1.178044E-01    9.216329E-02
   -4.619500E-02    1.234454E-01
   -9.688696E-02   -2.499643E-02
    4.168179E-02   -7.477120E-02
    8.710479E-02    7.191608E-02
   -7.843277E-02    1.284891E-01
   -1.654731E-01   -4.722460E-02
   -1.652426E-03   -1.701460E-01
    1.444330E-01   -3.649869E-02
    4.356902E-02    1.131816E-01
   -9.783316E-02    3.479478E-02
   -3.078345E-02   -9.899250E-02
    1.020248E-01   -4.030925E-02
    5.610100E-02    9.484066E-02
   -7.812729E-02    6.648675E-02
   -6.747973E-02   -6.062953E-02
    4.841244E-02   -6.376332E-02
    6.106230E-02    4.031614E-02
   -3.210559E-02    6.015185E-02
   -5.804807E-02   -2.235209E-02
    1.335057E-02   -5.292655E-02
    4.637335E-02    7.507019E-03
   -4.345366E-03    4.115035E-02
   -3.796348E-02   -1.365458E-03
   -2.954612E-03   -3.502847E-02
    3.040293E-02   -7.671787E-03
    1.071753E-02    2.411662E-02
   -1.794471E-02    1.115686E-02
   -9.937696E-03   -1.351241E-02
    1.092512E-02   -8.720428E-03
    8.343070E-03    9.091501E-03
   -7.005506E-03    8.426327E-03
   -8.151492E-03   -4.560379E-03
    2.314387E-03   -7.158770E-03
    5.733302E-03    7.633455E-04
    7.056061E-05    4.368058E-03
   -3.316490E-03    4.922212E-04
   -7.784840E-04   -2.526675E-03
    1.851076E-03   -1.009034E-03
    1.143565E-03    1.224397E-03
   -6.707166E-04    1.155376E-03
   -1.072383E-03   -2.243667E-04
   -1.130540E-04   -9.396622E-04
    7.868500E-04   -3.597434E-04
    5.341927E-04    6.293793E-04
   -4.756819E-04    6.539966E-04
   -7.345799E-04   -3.237964E-04
    1.640323E-04   -7.771881E-04
    7.658751E-04   -9.722629E-07
    1.419513E-04    6.905420E-04
   -5.746864E-04    2.217277E-04
   -2.338378E-04   -4.701855E-04
    4.155608E-04   -2.177436E-04
    2.265999E-04    3.998813E-04
   -3.734591E-04    2.775390E-04
   -3.357637E-04   -2.977236E-04
    1.840273E-04   -3.498229E-04
    3.021895E-04    8.272071E-05
   -3.566489E-05    2.248952E-04
   -1.680859E-04   -3.996430E-05
    5.596703E-05   -1.553946E-04
    1.687442E-04    4.652977E-05
   -7.760202E-06    1.718884E-04
   -1.452813E-04    3.465672E-05
   -5.388944E-05   -9.955640E-05
    6.026642E-05   -4.525855E-05
    2.554837E-05    4.333604E-05
   -4.438578E-05    1.440603E-05
   -1.801870E-05   -4.755918E-05
    4.140825E-05   -2.818124E-05
    3.333006E-05    2.671291E-05
   -1.204474E-05    2.906052E-05
   -1.960461E-05   -4.365047E-06
    3.850605E-06   -1.185452E-05
    9.139338E-06    5.841699E-06
   -6.007760E-06    9.884763E-06
   -1.059927E-05   -3.492439E-06
    2.231384E-07   -9.299846E-06
    6.495771E-06   -1.707682E-06
    1.798719E-06    3.841057E-06
   -2.401135E-06    9.697545E-07
   -3.407267E-07   -2.050734E-06
    2.034854E-06   -3.320290E-07
    6.661429E-07    1.786195E-06
   -1.256421E-06    8.978403E-07
   -8.404549E-07   -7.081243E-07
    3.618106E-07   -6.019117E-07
    3.758164E-07    2.353583E-07
   -2.134646E-07    2.600385E-07
   -2.307069E-07   -1.882761E-07
    1.290982E-07   -2.198218E-07
    1.876567E-07    6.148506E-08
   -1.545124E-08    1.374690E-07
   -9.010393E-08    2.337620E-09
   -3.610177E-09   -5.846015E-08
    4.142837E-08   -1.749768E-09
    2.360121E-09    3.164068E-08
   -2.368037E-08    4.512115E-09
   -5.855800E-09   -1.626660E-08
    1.018576E-08   -5.598701E-09
    4.388662E-09    6.018697E-09
   -3.514048E-09    3.083133E-09
   -2.076880E-09   -2.058774E-09
    1.174751E-09   -1.371526E-09
    8.661764E-10    6.238340E-10
   -2.960783E-10    4.995798E-10
   -2.445019E-10   -1.163315E-10
    2.548335E-11   -7.656940E-11
   -2.934384E-11   -1.402514E-11
    2.320579E-11   -9.154865E-11
    1.217103E-10    1.608576E-11
   -3.085138E-12    1.293644E-10
   -1.230764E-10    9.794405E-12
   -2.010228E-11   -1.090604E-10
    9.129371E-11   -2.670626E-11
    2.904191E-11    7.302717E-11
   -5.707251E-11    2.794497E-11
   -2.553933E-11   -4.462805E-11
    3.481922E-11   -2.357924E-11
    2.209694E-11    2.608475E-11
   -1.793039E-11    1.997316E-11
   -1.657189E-11   -1.119076E-11
    6.779493E-12   -1.256334E-11
    9.209532E-12    4.544137E-12
   -3.394683E-12    7.151949E-12
   -6.018628E-12   -2.304970E-12
    1.034189E-12   -5.029996E-12
    3.785456E-12   -3.298935E-14
    5.228088E-13    2.467099E-12
   -1.465044E-12    4.754225E-13
   -2.351283E-13   -9.459230E-13
    7.616781E-13   -1.044113E-13
    1.438739E-13    6.570843E-13
   -4.916312E-13    2.360466E-13
   -2.620204E-13   -2.857277E-13
    1.229039E-13   -2.023853E-13
    1.135794E-13    4.621035E-14
   -3.417671E-14    5.252857E-14
   -3.316443E-14   -4.027054E-14
    3.556123E-14   -3.558242E-14
    3.671450E-14    1.916598E-14
   -3.109649E-15    2.862535E-14
   -1.629134E-14    4.525781E-15
   -4.495221E-15   -6.783462E-15
    2.543630E-15   -1.783579E-15
    4.336750E-17    1.778119E-15
   -1.871779E-15   -8.522852E-17
   -4.305992E-16   -1.561798E-15
    9.025584E-16   -7.414753E-16
    6.834351E-16    3.153534E-16
    1.165628E-17    4.621731E-16
   -2.562353E-16    1.349200E-16
   -1.573307E-16   -1.111038E-16
    1.657116E-17   -1.313279E-16
    8.041000E-17   -3.096327E-17
    3.380777E-17    3.159937E-17
   -8.568756E-18    1.159372E-17
    7.142463E-18   -1.282211E-17
    2.597203E-17    7.129946E-18
    5.937287E-18    2.973899E-17
   -2.049397E-17    1.728507E-17
   -1.840362E-17   -6.868881E-18
   -1.763867E-18   -1.161309E-17
    4.120407E-18   -2.959307E-18
    2.796372E-19    5.931649E-19
   -8.309374E-19   -1.890338E-18
    1.867707E-18   -2.157643E-18
    2.561045E-18    5.499941E-19
    5.648692E-19    1.831097E-18
   -7.921351E-19    8.216714E-19
   -4.895513E-19   -1.494043E-19
    1.371480E-20   -1.056422E-19
   -4.718390E-20    1.151657E-19
   -1.894538E-19   -5.653400E-21
   -7.564820E-20   -1.574115E-19
    7.445046E-20   -1.018242E-19
    7.349630E-20    1.124015E-20
    9.233131E-21    3.267966E-20
   -8.611882E-21    3.510178E-21
    5.352335E-21   -3.555085E-21
