 Vespa-Simulation Mixed Metabolite Output
 This file was generated by Vespa-Simulation. You can learn about and download Vespa here:
https://github.com/vespa-mrs/vespa/tree/main/vespa

 
 Output Path/Filename = /home/stud/casperc/bhome/Project1(DeepFit)/DeepFit-data-generation/Initial_spectra_linewidth_10_TE30_1024p
 Output Loop Values = (1,1,1)  ( Loop 1 = 15, Loop 2 = 15, Loop3 Inactive )
 Output Comment
 ---------------------------------------------------------------------------
 
 
 Experiment Information
 ---------------------------------------------------------------------------
 --- Experiment 32780d98-dc11-42ab-ab27-92876fb0934a ---
 Name: PRESS_3T_30TE
 Public: False
 Created: 2023-12-19T15:15:29
 Comment (abbr.): LC-Model basis set clone +2-HG
 PI: Casper Cappelen
 b0: 127.740000
 Peak Search PPM low/high: 0.000000 / 10.000000
 Blend tol. PPM/phase: 0.001500 / 50.000000
 Pulse seq.: 43be13ae-de9a-40a1-9a2d-c872d8bjs100 (PRESS Ideal)
 0 User static parameters: 
 19 Metabolites: 2-hydroxyglutarate, GPC-gp, NAAG-truncated, alanine, aspartate, creatine, gaba, glucose-alpha, glucose-beta, glutamate, glutamine, glutathione-glutamate, lactate, myo-inositol, n-acetylaspartate, phosphocreatine, phosphorylcholine-notrimethyl, scyllo-inositol, taurine
 19 Simulations: (not shown)
 
 Metabolite Formatting Information
 ---------------------------------------------------------------------------
 Name=GPC-gp Abbr=GPC Scale=1.0 Shift=0.0 PPM Start=0.0 PPM End=4.5
 Name=NAAG-truncated Abbr=NAAG Scale=1.0 Shift=0.0 PPM Start=0.0 PPM End=4.5
 Name=alanine Abbr=Ala Scale=1.0 Shift=0.0 PPM Start=0.0 PPM End=4.5
 Name=aspartate Abbr=Asp Scale=1.0 Shift=0.0 PPM Start=0.0 PPM End=4.5
 Name=creatine Abbr=Cr Scale=1.0 Shift=0.1 PPM Start=0.0 PPM End=4.5
 Name=gaba Abbr=GABA Scale=1.0 Shift=0.0 PPM Start=0.0 PPM End=4.5
 Name=glutamate Abbr=Glu Scale=1.0 Shift=0.0 PPM Start=0.0 PPM End=4.5
 Name=glutamine Abbr=Gln Scale=1.0 Shift=0.0 PPM Start=0.0 PPM End=4.5
 Name=glutathione-glutamate Abbr=GSH Scale=1.0 Shift=0.0 PPM Start=0.0 PPM End=4.5
 Name=lactate Abbr=Lac Scale=1.0 Shift=0.0 PPM Start=0.0 PPM End=4.5
 Name=myo-inositol Abbr=mI Scale=1.0 Shift=0.0 PPM Start=0.0 PPM End=4.5
 Name=n-acetylaspartate Abbr=NAA Scale=1.0 Shift=0.0 PPM Start=0.0 PPM End=4.5
 Name=phosphocreatine Abbr=PCr Scale=1.0 Shift=0.0 PPM Start=0.0 PPM End=4.5
 Name=phosphorylcholine-notrimethyl Abbr=PCho Scale=1.0 Shift=0.0 PPM Start=0.0 PPM End=4.5
 Name=taurine Abbr=Tau Scale=1.0 Shift=0.0 PPM Start=0.0 PPM End=4.5
 Name=glucose-alpha+glucose-beta Abbr=Glc Scale=1.0 Shift=0.0 PPM Start=0.0 PPM End=4.5
   Mixture of [metab*scale] = glucose-alpha*1.000000 + glucose-beta*1.000000
 
 ===========================================================================
 This LCModel format RAW file was created using the 
 Vespa-Simulation spectral simulation program using 
 the following settings and parameters 
 
 Sweep Width = 574.83 Hz 
 Vector Size = 1024 points 
 Apodization = 10.0 Hz Gaussian broadening
 B0 Field    = 127.74 MHz 
 Ref Singlet = False
  
 $NMID ID='PCr'
 FMTDAT='(2E16.6)'
 VOLUME=1.0
 TRAMP=1.0
 $END
    5.000000E+00   -2.776235E-17
   -1.119436E+00    3.924700E+00
   -1.228015E+00   -1.317607E+00
    2.671705E-01    1.785043E+00
   -3.723357E+00   -1.530100E+00
    3.012673E+00   -3.822945E+00
    2.294790E+00    3.179432E+00
   -1.698019E+00    1.329349E-01
    1.484548E+00    8.566326E-01
   -3.278036E+00    1.847111E+00
   -1.049745E+00   -4.365716E+00
    3.566724E+00    1.519813E-01
   -8.542643E-01    1.264775E+00
    1.434833E+00   -5.657551E-01
   -5.132384E-01    3.293017E+00
   -3.565607E+00   -1.641503E+00
    2.008546E+00   -2.335111E+00
    3.885688E-01    1.236402E+00
    3.838917E-01   -1.257927E+00
    1.903664E+00    2.049840E+00
   -2.896396E+00    1.478363E+00
   -4.821721E-01   -2.471715E+00
    9.731194E-01    3.750182E-01
   -6.026186E-01   -8.753898E-01
    2.217941E+00   -1.793737E-01
   -4.958557E-01    2.504305E+00
   -1.735057E+00   -8.925565E-01
    6.859128E-01   -4.023749E-01
   -8.118662E-01   -5.589506E-02
    9.290385E-01   -1.396501E+00
    1.234991E+00    1.442926E+00
   -1.303450E+00    5.944520E-01
    8.130958E-02   -5.688372E-01
   -3.983009E-01    4.359444E-01
   -3.723731E-01   -1.138779E+00
    1.337909E+00   -5.421315E-02
   -2.368561E-01    9.682301E-01
   -2.699813E-01   -2.862212E-01
    6.428968E-02    4.009108E-01
   -7.613780E-01   -2.793791E-01
    5.248050E-01   -7.244781E-01
    4.045521E-01    5.179622E-01
   -2.544159E-01    2.129501E-02
    2.305856E-01    1.297149E-01
   -4.431414E-01    2.725389E-01
   -1.546003E-01   -5.448735E-01
    4.106490E-01    1.934898E-03
   -8.724637E-02    1.305055E-01
    1.512772E-01   -6.165509E-02
   -3.670672E-02    3.141077E-01
   -3.141740E-01   -1.294911E-01
    1.514749E-01   -1.902055E-01
    2.778550E-02    8.714839E-02
    2.680862E-02   -9.174686E-02
    1.289902E-01    1.286424E-01
   -1.683886E-01    9.472757E-02
   -3.116350E-02   -1.328272E-01
    4.719062E-02    1.799737E-02
   -3.059015E-02   -4.327750E-02
    9.874292E-02   -1.181205E-02
   -1.606937E-02    1.028496E-01
   -6.571638E-02   -3.072772E-02
    2.275604E-02   -1.343599E-02
   -2.780221E-02   -1.554939E-03
    2.683019E-02   -4.389419E-02
    3.616758E-02    3.894717E-02
   -3.266355E-02    1.641102E-02
    1.826293E-03   -1.297519E-02
   -9.214369E-03    1.035914E-02
   -8.752878E-03   -2.365166E-02
    2.563271E-02   -2.080589E-03
   -3.505868E-03    1.709909E-02
   -4.230999E-03   -4.472424E-03
    1.124671E-03    6.443877E-03
   -1.114561E-02   -3.610260E-03
    6.525637E-03   -9.821489E-03
    5.092558E-03    6.037236E-03
   -2.731516E-03    2.307144E-04
    2.569101E-03    1.397496E-03
   -4.286113E-03    2.868857E-03
   -1.597004E-03   -4.868452E-03
    3.384974E-03   -1.113142E-04
   -6.427717E-04    9.615632E-04
    1.140468E-03   -4.844270E-04
   -1.673167E-04    2.145142E-03
   -1.981522E-03   -7.243193E-04
    8.163294E-04   -1.107977E-03
    1.401879E-04    4.407007E-04
    1.323110E-04   -4.795558E-04
    6.249840E-04    5.770319E-04
   -7.005703E-04    4.323506E-04
   -1.403079E-04   -5.110394E-04
    1.636330E-04    6.266912E-05
   -1.116228E-04   -1.528455E-04
    3.147289E-04   -5.001228E-05
   -3.477712E-05    3.024226E-04
   -1.781253E-04   -7.529270E-05
    5.424459E-05   -3.186988E-05
   -6.817999E-05   -2.728092E-06
    5.523559E-05   -9.873728E-05
    7.569124E-05    7.516543E-05
   -5.858996E-05    3.223684E-05
    3.045849E-06   -2.118844E-05
   -1.520766E-05    1.766792E-05
   -1.457936E-05   -3.516021E-05
    3.516184E-05   -4.291987E-06
   -3.596747E-06    2.161687E-05
   -4.724509E-06   -5.031538E-06
    1.421134E-06    7.411930E-06
   -1.168055E-05   -3.290533E-06
    5.787958E-06   -9.526595E-06
    4.578980E-06    5.034231E-06
   -2.102158E-06    1.679606E-07
    2.052388E-06    1.071547E-06
   -2.965657E-06    2.155663E-06
   -1.162971E-06   -3.114074E-06
    1.997678E-06   -1.404337E-07
   -3.420483E-07    5.058072E-07
    6.148208E-07   -2.739131E-07
   -4.105984E-08    1.048890E-06
   -8.946149E-07   -2.865749E-07
    3.142795E-07   -4.616389E-07
    4.978846E-08    1.599693E-07
    4.612342E-08   -1.795951E-07
    2.165755E-07    1.849453E-07
   -2.085679E-07    1.406677E-07
   -4.434239E-08   -1.407640E-07
    4.056915E-08    1.586864E-08
   -2.925409E-08   -3.856559E-08
    7.181699E-08   -1.428585E-08
   -4.720839E-09    6.366891E-08
   -3.455399E-08   -1.311449E-08
    9.297689E-09   -5.363351E-09
   -1.197185E-08   -2.569041E-10
    8.100463E-09   -1.589589E-08
    1.132358E-08    1.036927E-08
   -7.522309E-09    4.510467E-09
    3.785823E-10   -2.477542E-09
   -1.790756E-09    2.161712E-09
   -1.724143E-09   -3.741078E-09
    3.453429E-09   -5.641833E-10
   -2.513858E-10    1.956408E-09
   -3.756756E-10   -4.079571E-10
    1.291746E-10    6.100498E-10
   -8.763615E-10   -2.105530E-10
    3.659734E-10   -6.611957E-10
    2.941706E-10    3.002855E-10
   -1.160112E-10    8.028750E-12
    1.175279E-10    5.846469E-11
   -1.467855E-10    1.156637E-10
   -5.992339E-11   -1.425886E-10
    8.440777E-11   -9.080810E-12
   -1.316509E-11    1.899063E-11
    2.370254E-11   -1.112863E-11
   -9.905714E-15    3.671978E-11
   -2.891503E-11   -7.986785E-12
    8.640948E-12   -1.375872E-11
    1.240955E-12    4.170624E-12
    1.134326E-12   -4.818045E-12
    5.368081E-12    4.234593E-12
   -4.442357E-12    3.265426E-12
   -9.883618E-13   -2.775840E-12
    7.192525E-13    2.925953E-13
   -5.502028E-13   -6.952861E-13
    1.173204E-12   -2.812197E-13
   -3.221244E-14    9.597341E-13
   -4.797437E-13   -1.621302E-13
    1.146812E-13   -6.395612E-14
   -1.505040E-13   -1.000466E-16
    8.452923E-14   -1.831682E-13
    1.211232E-13    1.022233E-13
   -6.912431E-14    4.498481E-14
    3.500778E-15   -2.074983E-14
   -1.504735E-14    1.896494E-14
   -1.450252E-14   -2.848694E-14
    2.428416E-14   -4.983130E-15
   -1.157378E-15    1.267574E-14
   -2.125527E-15   -2.386430E-15
    8.414859E-16    3.592966E-15
   -4.707479E-15   -9.382077E-16
    1.647826E-15   -3.284242E-15
    1.350568E-15    1.281184E-15
   -4.593228E-16    2.365833E-17
    4.822763E-16    2.269993E-16
   -5.195691E-16    4.433925E-16
   -2.190555E-16   -4.673245E-16
    2.553437E-16   -3.696389E-17
   -3.669584E-17    5.087507E-17
    6.534573E-17   -3.245181E-17
    3.576798E-18    9.203791E-17
   -6.690403E-17   -1.560145E-17
    1.696164E-17   -2.933504E-17
    2.158057E-18    7.815125E-18
    1.963165E-18   -9.257679E-18
    9.519198E-18    6.922633E-18
   -6.769257E-18    5.410173E-18
   -1.558632E-18   -3.918819E-18
    9.118455E-19    3.933257E-19
   -7.422648E-19   -8.955770E-19
    1.372001E-18   -3.862523E-19
    7.084163E-21    1.035809E-18
   -4.767193E-19   -1.419838E-19
    1.018842E-19   -5.391651E-20
   -1.354510E-19    3.012648E-21
    6.266722E-20   -1.510857E-19
    9.265113E-20    7.199489E-20
   -4.546247E-20    3.199849E-20
    2.398112E-21   -1.245132E-20
