 Vespa-Simulation Mixed Metabolite Output
 This file was generated by Vespa-Simulation. You can learn about and download Vespa here:
https://github.com/vespa-mrs/vespa/tree/main/vespa

 
 Output Path/Filename = /home/stud/casperc/bhome/Project1(DeepFit)/DeepFit-data-generation/Initial_spectra_linewidth_10_TE30_1024p
 Output Loop Values = (1,1,1)  ( Loop 1 = 15, Loop 2 = 15, Loop3 Inactive )
 Output Comment
 ---------------------------------------------------------------------------
 
 
 Experiment Information
 ---------------------------------------------------------------------------
 --- Experiment 32780d98-dc11-42ab-ab27-92876fb0934a ---
 Name: PRESS_3T_30TE
 Public: False
 Created: 2023-12-19T15:15:29
 Comment (abbr.): LC-Model basis set clone +2-HG
 PI: Casper Cappelen
 b0: 127.740000
 Peak Search PPM low/high: 0.000000 / 10.000000
 Blend tol. PPM/phase: 0.001500 / 50.000000
 Pulse seq.: 43be13ae-de9a-40a1-9a2d-c872d8bjs100 (PRESS Ideal)
 0 User static parameters: 
 19 Metabolites: 2-hydroxyglutarate, GPC-gp, NAAG-truncated, alanine, aspartate, creatine, gaba, glucose-alpha, glucose-beta, glutamate, glutamine, glutathione-glutamate, lactate, myo-inositol, n-acetylaspartate, phosphocreatine, phosphorylcholine-notrimethyl, scyllo-inositol, taurine
 19 Simulations: (not shown)
 
 Metabolite Formatting Information
 ---------------------------------------------------------------------------
 Name=GPC-gp Abbr=GPC Scale=1.0 Shift=0.0 PPM Start=0.0 PPM End=4.5
 Name=NAAG-truncated Abbr=NAAG Scale=1.0 Shift=0.0 PPM Start=0.0 PPM End=4.5
 Name=alanine Abbr=Ala Scale=1.0 Shift=0.0 PPM Start=0.0 PPM End=4.5
 Name=aspartate Abbr=Asp Scale=1.0 Shift=0.0 PPM Start=0.0 PPM End=4.5
 Name=creatine Abbr=Cr Scale=1.0 Shift=0.1 PPM Start=0.0 PPM End=4.5
 Name=gaba Abbr=GABA Scale=1.0 Shift=0.0 PPM Start=0.0 PPM End=4.5
 Name=glutamate Abbr=Glu Scale=1.0 Shift=0.0 PPM Start=0.0 PPM End=4.5
 Name=glutamine Abbr=Gln Scale=1.0 Shift=0.0 PPM Start=0.0 PPM End=4.5
 Name=glutathione-glutamate Abbr=GSH Scale=1.0 Shift=0.0 PPM Start=0.0 PPM End=4.5
 Name=lactate Abbr=Lac Scale=1.0 Shift=0.0 PPM Start=0.0 PPM End=4.5
 Name=myo-inositol Abbr=mI Scale=1.0 Shift=0.0 PPM Start=0.0 PPM End=4.5
 Name=n-acetylaspartate Abbr=NAA Scale=1.0 Shift=0.0 PPM Start=0.0 PPM End=4.5
 Name=phosphocreatine Abbr=PCr Scale=1.0 Shift=0.0 PPM Start=0.0 PPM End=4.5
 Name=phosphorylcholine-notrimethyl Abbr=PCho Scale=1.0 Shift=0.0 PPM Start=0.0 PPM End=4.5
 Name=taurine Abbr=Tau Scale=1.0 Shift=0.0 PPM Start=0.0 PPM End=4.5
 Name=glucose-alpha+glucose-beta Abbr=Glc Scale=1.0 Shift=0.0 PPM Start=0.0 PPM End=4.5
   Mixture of [metab*scale] = glucose-alpha*1.000000 + glucose-beta*1.000000
 
 ===========================================================================
 This LCModel format RAW file was created using the 
 Vespa-Simulation spectral simulation program using 
 the following settings and parameters 
 
 Sweep Width = 574.83 Hz 
 Vector Size = 1024 points 
 Apodization = 10.0 Hz Gaussian broadening
 B0 Field    = 127.74 MHz 
 Ref Singlet = False
  
 This data has been FFTd to be in the FREQUENCY domain
 
 $NMID ID='PCr'
 FMTDAT='(2E16.6)'
 VOLUME=1.0
 TRAMP=1.0
 $END
    2.499957E+00    2.323046E+00
    2.499957E+00    2.340332E+00
    2.499960E+00    2.357756E+00
    2.499964E+00    2.375320E+00
    2.499970E+00    2.393027E+00
    2.499977E+00    2.410877E+00
    2.499985E+00    2.428874E+00
    2.499993E+00    2.447020E+00
    2.500002E+00    2.465318E+00
    2.500010E+00    2.483769E+00
    2.500017E+00    2.502377E+00
    2.500022E+00    2.521145E+00
    2.500025E+00    2.540077E+00
    2.500026E+00    2.559175E+00
    2.500025E+00    2.578444E+00
    2.500021E+00    2.597888E+00
    2.500016E+00    2.617509E+00
    2.500008E+00    2.637312E+00
    2.500000E+00    2.657300E+00
    2.499990E+00    2.677477E+00
    2.499981E+00    2.697846E+00
    2.499971E+00    2.718412E+00
    2.499962E+00    2.739177E+00
    2.499954E+00    2.760145E+00
    2.499947E+00    2.781320E+00
    2.499941E+00    2.802706E+00
    2.499936E+00    2.824306E+00
    2.499933E+00    2.846124E+00
    2.499932E+00    2.868165E+00
    2.499931E+00    2.890432E+00
    2.499933E+00    2.912930E+00
    2.499935E+00    2.935663E+00
    2.499939E+00    2.958637E+00
    2.499944E+00    2.981855E+00
    2.499951E+00    3.005323E+00
    2.499958E+00    3.029045E+00
    2.499967E+00    3.053028E+00
    2.499975E+00    3.077275E+00
    2.499985E+00    3.101794E+00
    2.499994E+00    3.126589E+00
    2.500003E+00    3.151667E+00
    2.500012E+00    3.177033E+00
    2.500021E+00    3.202696E+00
    2.500028E+00    3.228660E+00
    2.500035E+00    3.254934E+00
    2.500041E+00    3.281525E+00
    2.500046E+00    3.308439E+00
    2.500050E+00    3.335684E+00
    2.500054E+00    3.363269E+00
    2.500057E+00    3.391201E+00
    2.500060E+00    3.419487E+00
    2.500063E+00    3.448137E+00
    2.500066E+00    3.477159E+00
    2.500068E+00    3.506561E+00
    2.500069E+00    3.536353E+00
    2.500070E+00    3.566545E+00
    2.500070E+00    3.597146E+00
    2.500068E+00    3.628167E+00
    2.500066E+00    3.659619E+00
    2.500062E+00    3.691512E+00
    2.500056E+00    3.723859E+00
    2.500049E+00    3.756671E+00
    2.500042E+00    3.789960E+00
    2.500033E+00    3.823740E+00
    2.500023E+00    3.858024E+00
    2.500014E+00    3.892825E+00
    2.500004E+00    3.928157E+00
    2.499995E+00    3.964035E+00
    2.499987E+00    4.000474E+00
    2.499979E+00    4.037489E+00
    2.499973E+00    4.075095E+00
    2.499969E+00    4.113310E+00
    2.499965E+00    4.152151E+00
    2.499964E+00    4.191636E+00
    2.499964E+00    4.231782E+00
    2.499965E+00    4.272610E+00
    2.499967E+00    4.314140E+00
    2.499970E+00    4.356393E+00
    2.499974E+00    4.399391E+00
    2.499979E+00    4.443157E+00
    2.499983E+00    4.487716E+00
    2.499987E+00    4.533092E+00
    2.499991E+00    4.579313E+00
    2.499994E+00    4.626406E+00
    2.499996E+00    4.674399E+00
    2.499998E+00    4.723324E+00
    2.499999E+00    4.773211E+00
    2.500000E+00    4.824095E+00
    2.500000E+00    4.876009E+00
    2.500000E+00    4.928990E+00
    2.499999E+00    4.983076E+00
    2.499998E+00    5.038306E+00
    2.499997E+00    5.094722E+00
    2.499997E+00    5.152368E+00
    2.499996E+00    5.211290E+00
    2.499995E+00    5.271537E+00
    2.499995E+00    5.333158E+00
    2.499995E+00    5.396209E+00
    2.499995E+00    5.460746E+00
    2.499995E+00    5.526828E+00
    2.499996E+00    5.594518E+00
    2.499997E+00    5.663884E+00
    2.499999E+00    5.734994E+00
    2.500000E+00    5.807925E+00
    2.500003E+00    5.882755E+00
    2.500005E+00    5.959567E+00
    2.500008E+00    6.038451E+00
    2.500011E+00    6.119500E+00
    2.500014E+00    6.202816E+00
    2.500017E+00    6.288505E+00
    2.500019E+00    6.376681E+00
    2.500021E+00    6.467467E+00
    2.500023E+00    6.560991E+00
    2.500024E+00    6.657394E+00
    2.500024E+00    6.756824E+00
    2.500023E+00    6.859442E+00
    2.500022E+00    6.965418E+00
    2.500020E+00    7.074937E+00
    2.500018E+00    7.188198E+00
    2.500014E+00    7.305416E+00
    2.500011E+00    7.426821E+00
    2.500008E+00    7.552664E+00
    2.500004E+00    7.683218E+00
    2.500001E+00    7.818777E+00
    2.499998E+00    7.959663E+00
    2.499995E+00    8.106227E+00
    2.499993E+00    8.258852E+00
    2.499991E+00    8.417959E+00
    2.499991E+00    8.584011E+00
    2.499991E+00    8.757518E+00
    2.499992E+00    8.939044E+00
    2.499995E+00    9.129217E+00
    2.499999E+00    9.328735E+00
    2.500006E+00    9.538379E+00
    2.500018E+00    9.759031E+00
    2.500040E+00    9.991682E+00
    2.500081E+00    1.023746E+01
    2.500158E+00    1.049767E+01
    2.500301E+00    1.077379E+01
    2.500567E+00    1.106755E+01
    2.501052E+00    1.138097E+01
    2.501923E+00    1.171642E+01
    2.503462E+00    1.207671E+01
    2.506131E+00    1.246518E+01
    2.510675E+00    1.288579E+01
    2.518271E+00    1.334329E+01
    2.530734E+00    1.384326E+01
    2.550806E+00    1.439229E+01
    2.582533E+00    1.499801E+01
    2.631751E+00    1.566911E+01
    2.706672E+00    1.641519E+01
    2.818574E+00    1.724649E+01
    2.982544E+00    1.817332E+01
    3.218226E+00    1.920526E+01
    3.550468E+00    2.034992E+01
    4.009738E+00    2.161136E+01
    4.632149E+00    2.298812E+01
    5.458901E+00    2.447094E+01
    6.534969E+00    2.604031E+01
    7.906882E+00    2.766416E+01
    9.619516E+00    2.929591E+01
    1.171194E+01    3.087325E+01
    1.421247E+01    3.231823E+01
    1.713332E+01    3.353876E+01
    2.046528E+01    3.443205E+01
    2.417315E+01    3.488984E+01
    2.819254E+01    3.480553E+01
    3.242878E+01    3.408260E+01
    3.675846E+01    3.264370E+01
    4.103396E+01    3.043961E+01
    4.509084E+01    2.745692E+01
    4.875788E+01    2.372341E+01
    5.186876E+01    1.931041E+01
    5.427446E+01    1.433133E+01
    5.585508E+01    8.936409E+00
    5.652974E+01    3.303848E+00
    5.626343E+01   -2.371829E+00
    5.506999E+01   -7.893111E+00
    5.301097E+01   -1.307313E+01
    5.019034E+01   -1.774819E+01
    4.674580E+01   -2.178796E+01
    4.283765E+01   -2.510241E+01
    3.863650E+01   -2.764484E+01
    3.431108E+01   -2.941123E+01
    3.001742E+01   -3.043604E+01
    2.589019E+01   -3.078541E+01
    2.203696E+01   -3.054865E+01
    1.853529E+01   -2.982907E+01
    1.543284E+01   -2.873515E+01
    1.274962E+01   -2.737285E+01
    1.048212E+01   -2.583942E+01
    8.608382E+00   -2.421928E+01
    7.093364E+00   -2.258163E+01
    5.894161E+00   -2.097981E+01
    4.964511E+00   -1.945202E+01
    4.258433E+00   -1.802295E+01
    3.732869E+00   -1.670603E+01
    3.349384E+00   -1.550581E+01
    3.075024E+00   -1.442039E+01
    2.882525E+00   -1.344347E+01
    2.750048E+00   -1.256616E+01
    2.660609E+00   -1.177835E+01
    2.601367E+00   -1.106966E+01
    2.562861E+00   -1.043019E+01
    2.538302E+00   -9.850812E+00
    2.522929E+00   -9.323433E+00
