 Vespa-Simulation Mixed Metabolite Output
 This file was generated by Vespa-Simulation. You can learn about and download Vespa here:
https://github.com/vespa-mrs/vespa/tree/main/vespa

 
 Output Path/Filename = /home/stud/casperc/bhome/Project1(DeepFit)/DeepFit-data-generation/Initial_spectra_linewidth_10_TE30_1024p
 Output Loop Values = (1,1,1)  ( Loop 1 = 11, Loop 2 = 11, Loop3 Inactive )
 Output Comment
 ---------------------------------------------------------------------------
 
 
 Experiment Information
 ---------------------------------------------------------------------------
 --- Experiment 982623a4-1070-4538-bb82-a4cf0a440db0 ---
 Name: SyntheticDataSetDeepFitTE22
 Public: False
 Created: 2024-10-04T10:31:50
 Comment (abbr.): 
 PI: Casper Cappelen
 b0: 127.740000
 Peak Search PPM low/high: -10.000000 / 10.000000
 Blend tol. PPM/phase: 0.000150 / 50.000000
 Pulse seq.: 43be13ae-de9a-40a1-9a2d-c872d8bjs100 (PRESS Ideal)
 0 User static parameters: 
 28 Metabolites: 2-hydroxyglutarate, alanine, choline-methylene, choline-trimethyl, choline-truncated, creatine, ethanolamine, gaba, glucose-alpha, glucose-beta, glutamate, glutamine, glutathione-glutamate, glutathione-glycine-cysteine, glycine, GPC-gp, GPC-pcholine1, GPC-pcholine2, lactate, myo-inositol, n-acetylaspartate, NAAG-truncated, phosphocreatine, phosphorylcholine-notrimethyl, phosphorylcholine-trimethyl, phosphorylethanolamine, pyruvate, taurine
 28 Simulations: (not shown)
 
 Metabolite Formatting Information
 ---------------------------------------------------------------------------
 Name=2-hydroxyglutarate Abbr=2HG Scale=1.0 Shift=0.0 PPM Start=-7.81 PPM End=7.81
 Name=alanine Abbr=Ala Scale=1.0 Shift=0.0 PPM Start=-7.81 PPM End=7.81
 Name=choline-methylene Abbr=choline-methylene Scale=1.0 Shift=0.0 PPM Start=-7.81 PPM End=7.81
 Name=choline-trimethyl Abbr=choline-trimethyl Scale=1.0 Shift=0.0 PPM Start=-7.81 PPM End=7.81
 Name=choline-truncated Abbr=choline-truncated Scale=1.0 Shift=0.0 PPM Start=-7.81 PPM End=7.81
 Name=creatine Abbr=Cr Scale=1.0 Shift=0.0 PPM Start=-7.81 PPM End=7.81
 Name=ethanolamine Abbr=ETA Scale=1.0 Shift=0.0 PPM Start=-7.81 PPM End=7.81
 Name=gaba Abbr=GABA Scale=1.0 Shift=0.0 PPM Start=-7.81 PPM End=7.81
 Name=glutamate Abbr=Glu Scale=1.0 Shift=0.0 PPM Start=-7.81 PPM End=7.81
 Name=glutamine Abbr=Gln Scale=1.0 Shift=0.0 PPM Start=-7.81 PPM End=7.81
 Name=glutathione-glutamate Abbr=glutathione-glutamate Scale=1.0 Shift=0.0 PPM Start=-7.81 PPM End=7.81
 Name=glutathione-glycine-cysteine Abbr=GSH Scale=1.0 Shift=0.0 PPM Start=-7.81 PPM End=7.81
 Name=glycine Abbr=Gly Scale=1.0 Shift=0.0 PPM Start=-7.81 PPM End=7.81
 Name=GPC-gp Abbr=GPC-gp Scale=1.0 Shift=0.0 PPM Start=-7.81 PPM End=7.81
 Name=GPC-pcholine1 Abbr=GPC-pcholine1 Scale=1.0 Shift=0.0 PPM Start=-7.81 PPM End=7.81
 Name=GPC-pcholine2 Abbr=GPC-pcholine2 Scale=1.0 Shift=0.0 PPM Start=-7.81 PPM End=7.81
 Name=lactate Abbr=Lac Scale=1.0 Shift=0.0 PPM Start=-7.81 PPM End=7.81
 Name=myo-inositol Abbr=mI Scale=1.0 Shift=0.0 PPM Start=-7.81 PPM End=7.81
 Name=n-acetylaspartate Abbr=NAA Scale=1.0 Shift=0.0 PPM Start=-7.18 PPM End=7.81
 Name=NAAG-truncated Abbr=NAAG Scale=1.0 Shift=0.0 PPM Start=-7.81 PPM End=7.81
 Name=phosphocreatine Abbr=PCr Scale=1.0 Shift=0.0 PPM Start=-7.81 PPM End=7.81
 Name=phosphorylcholine-notrimethyl Abbr=phosphorylcholine-notrimethyl Scale=1.0 Shift=0.0 PPM Start=-7.81 PPM End=7.81
 Name=phosphorylcholine-trimethyl Abbr=phosphorylcholine-trimethyl Scale=1.0 Shift=0.0 PPM Start=-7.81 PPM End=7.81
 Name=phosphorylethanolamine Abbr=PE Scale=1.0 Shift=0.0 PPM Start=-7.81 PPM End=7.81
 Name=pyruvate Abbr=Pyr Scale=1.0 Shift=0.0 PPM Start=-7.51 PPM End=7.81
 Name=taurine Abbr=Tau Scale=1.0 Shift=0.0 PPM Start=7.81 PPM End=7.81
 Name=glucose-beta+glucose-alpha Abbr=Glc Scale=1.0 Shift=0.0 PPM Start=-7.81 PPM End=7.81
   Mixture of [metab*scale] = glucose-beta*1.000000 + glucose-alpha*1.000000
 
 ===========================================================================
 This LCModel format RAW file was created using the 
 Vespa-Simulation spectral simulation program using 
 the following settings and parameters 
 
 Sweep Width = 3500.0 Hz 
 Vector Size = 2048 points 
 Apodization = 15.0 Hz Lorentzian broadening
 B0 Field    = 127.74 MHz 
 Ref Singlet = False
  
 $NMID ID='PE'
 FMTDAT='(2E16.6)'
 VOLUME=1.0
 TRAMP=1.0
 $END
    3.418742E+00    5.239972E-05
    3.251659E+00    8.412717E-01
    2.863711E+00    1.588074E+00
    2.297195E+00    2.181208E+00
    1.609872E+00    2.578670E+00
    8.683529E-01    2.759401E+00
    1.407714E-01    2.724570E+00
   -5.104201E-01    2.496392E+00
   -1.034717E+00    2.114708E+00
   -1.398296E+00    1.631775E+00
   -1.586626E+00    1.105958E+00
   -1.604900E+00    5.949999E-01
   -1.476197E+00    1.497501E-01
   -1.237768E+00   -1.910956E-01
   -9.358903E-01   -4.045571E-01
   -6.199678E-01   -4.850134E-01
   -3.365402E-01   -4.437715E-01
   -1.239469E-01   -3.066704E-01
   -8.167355E-03   -1.101494E-01
   -3.076065E-04    1.037675E-01
   -9.594570E-02    2.929243E-01
   -2.763369E-01    4.202728E-01
   -5.112683E-01    4.583120E-01
   -7.631732E-01    3.922387E-01
   -9.919935E-01    2.214674E-01
   -1.160165E+00   -4.054451E-02
   -1.237195E+00   -3.681586E-01
   -1.203276E+00   -7.267797E-01
   -1.051548E+00   -1.077092E+00
   -7.888620E-01   -1.379646E+00
   -4.348454E-01   -1.599504E+00
   -1.959416E-02   -1.710143E+00
    4.197213E-01   -1.696362E+00
    8.431442E-01   -1.555868E+00
    1.212267E+00   -1.299322E+00
    1.494302E+00   -9.490405E-01
    1.665556E+00   -5.362929E-01
    1.713629E+00   -9.789802E-02
    1.638453E+00    3.279070E-01
    1.451858E+00    7.054534E-01
    1.175934E+00    1.005209E+00
    8.402621E-01    1.206702E+00
    4.785632E-01    1.300129E+00
    1.248906E-01    1.286928E+00
   -1.899269E-01    1.178970E+00
   -4.413181E-01    9.967253E-01
   -6.132875E-01    7.665469E-01
   -6.995450E-01    5.174490E-01
   -7.035434E-01    2.777958E-01
   -6.374742E-01    7.215499E-02
   -5.202707E-01   -8.114225E-02
   -3.750022E-01   -1.717140E-01
   -2.259144E-01   -1.977641E-01
   -9.551431E-02   -1.657253E-01
   -1.982171E-03   -8.899004E-02
    4.275755E-02    1.413415E-02
    3.414799E-02    1.229236E-01
   -2.479619E-02    2.169103E-01
   -1.242164E-01    2.784070E-01
   -2.488735E-01    2.945872E-01
   -3.802189E-01    2.589268E-01
   -4.987956E-01    1.718039E-01
   -5.866005E-01    4.033165E-02
   -6.292662E-01   -1.226422E-01
   -6.177080E-01   -3.002155E-01
   -5.491218E-01   -4.734062E-01
   -4.272403E-01   -6.234305E-01
   -2.617643E-01   -7.338801E-01
   -6.725090E-02   -7.924759E-01
    1.386286E-01   -7.924122E-01
    3.370600E-01   -7.329979E-01
    5.102173E-01   -6.195766E-01
    6.430515E-01   -4.628342E-01
    7.248737E-01   -2.775116E-01
    7.503528E-01   -8.065919E-02
    7.198346E-01    1.101478E-01
    6.391168E-01    2.787112E-01
    5.185690E-01    4.118829E-01
    3.718543E-01    5.007021E-01
    2.143237E-01    5.411662E-01
    6.126399E-02    5.343755E-01
   -7.364540E-02    4.860747E-01
   -1.797296E-01    4.057728E-01
   -2.502479E-01    3.054701E-01
   -2.828822E-01    1.981625E-01
   -2.796344E-01    9.637415E-02
   -2.463244E-01    1.078527E-02
   -1.916489E-01   -5.085625E-02
   -1.259756E-01   -8.437472E-02
   -6.002862E-02   -8.941795E-02
   -3.593236E-03   -6.923314E-02
    3.557205E-02   -3.002978E-02
    5.254907E-02    1.994451E-02
    4.568613E-02    7.153318E-02
    1.661970E-02    1.158305E-01
   -3.008453E-02    1.452656E-01
   -8.763635E-02    1.544695E-01
   -1.479239E-01    1.408426E-01
   -2.025600E-01    1.047743E-01
   -2.439015E-01    4.950461E-02
   -2.659494E-01   -1.936708E-02
   -2.650043E-01   -9.457941E-02
   -2.400535E-01   -1.681140E-01
   -1.928056E-01   -2.321577E-01
   -1.274445E-01   -2.799550E-01
   -5.009099E-02   -3.065623E-01
    3.195511E-02   -3.093470E-01
    1.110144E-01   -2.881960E-01
    1.798943E-01   -2.454591E-01
    2.326628E-01   -1.855910E-01
    2.651989E-01   -1.146112E-01
    2.755768E-01   -3.938724E-02
    2.641617E-01    3.312960E-02
    2.334600E-01    9.663079E-02
    1.877254E-01    1.461226E-01
    1.324264E-01    1.783127E-01
    7.358515E-02    1.918970E-01
    1.710393E-02    1.875570E-01
   -3.185606E-02    1.677517E-01
   -6.937619E-02    1.363269E-01
   -9.310846E-02    9.800066E-02
   -1.024307E-01    5.776492E-02
   -9.835185E-02    2.033542E-02
   -8.329126E-02   -1.036670E-02
   -6.068726E-02   -3.159152E-02
   -3.452303E-02   -4.198149E-02
   -8.824961E-03   -4.161826E-02
    1.281976E-02   -3.190367E-02
    2.764166E-02   -1.528954E-02
    3.396739E-02    5.086855E-03
    3.134210E-02    2.582891E-02
    2.050334E-02    4.370788E-02
    3.219326E-03    5.604311E-02
   -1.799585E-02    6.099635E-02
   -4.021468E-02    5.774322E-02
   -6.047899E-02    4.652295E-02
   -7.615410E-02    2.855596E-02
   -8.522695E-02    5.852315E-03
   -8.651507E-02   -1.906133E-02
   -7.976938E-02   -4.345617E-02
   -6.565515E-02   -6.473972E-02
   -4.564281E-02   -8.072422E-02
   -2.180079E-02   -8.986989E-02
    3.463353E-03   -9.142267E-02
    2.768631E-02   -8.545877E-02
    4.861892E-02   -7.283531E-02
    6.447239E-02   -5.504634E-02
    7.406450E-02   -3.403427E-02
    7.692310E-02   -1.194781E-02
    7.328656E-02    9.100274E-03
    6.402913E-02    2.725596E-02
    5.052137E-02    4.110250E-02
    3.444814E-02    4.977591E-02
    1.759526E-02    5.301869E-02
    1.661968E-03    5.114527E-02
   -1.192081E-02    4.496496E-02
   -2.211806E-02    3.564692E-02
   -2.836469E-02    2.455876E-02
   -3.057984E-02    1.309895E-02
   -2.912847E-02    2.534301E-03
   -2.472934E-02   -6.119002E-03
   -1.833925E-02   -1.218715E-02
   -1.101735E-02   -1.537597E-02
   -3.792229E-03   -1.576184E-02
    2.453831E-03   -1.374046E-02
    7.070844E-03   -9.943942E-03
    9.693052E-03   -5.137196E-03
    1.024644E-02   -1.123101E-04
    8.925696E-03    4.411157E-03
    6.138548E-03    7.865371E-03
