 Vespa-Simulation Mixed Metabolite Output
 This file was generated by Vespa-Simulation. You can learn about and download Vespa here:
https://github.com/vespa-mrs/vespa/tree/main/vespa

 
 Output Path/Filename = /home/stud/casperc/bhome/Project1(DeepFit)/DeepFit-data-generation/Initial_spectra_linewidth_10_TE30_1024p
 Output Loop Values = (1,1,1)  ( Loop 1 = 11, Loop 2 = 11, Loop3 Inactive )
 Output Comment
 ---------------------------------------------------------------------------
 
 
 Experiment Information
 ---------------------------------------------------------------------------
 --- Experiment 982623a4-1070-4538-bb82-a4cf0a440db0 ---
 Name: SyntheticDataSetDeepFitTE22
 Public: False
 Created: 2024-10-04T10:31:50
 Comment (abbr.): 
 PI: Casper Cappelen
 b0: 127.740000
 Peak Search PPM low/high: -10.000000 / 10.000000
 Blend tol. PPM/phase: 0.000150 / 50.000000
 Pulse seq.: 43be13ae-de9a-40a1-9a2d-c872d8bjs100 (PRESS Ideal)
 0 User static parameters: 
 28 Metabolites: 2-hydroxyglutarate, alanine, choline-methylene, choline-trimethyl, choline-truncated, creatine, ethanolamine, gaba, glucose-alpha, glucose-beta, glutamate, glutamine, glutathione-glutamate, glutathione-glycine-cysteine, glycine, GPC-gp, GPC-pcholine1, GPC-pcholine2, lactate, myo-inositol, n-acetylaspartate, NAAG-truncated, phosphocreatine, phosphorylcholine-notrimethyl, phosphorylcholine-trimethyl, phosphorylethanolamine, pyruvate, taurine
 28 Simulations: (not shown)
 
 Metabolite Formatting Information
 ---------------------------------------------------------------------------
 Name=2-hydroxyglutarate Abbr=2HG Scale=1.0 Shift=0.0 PPM Start=-7.81 PPM End=7.81
 Name=alanine Abbr=Ala Scale=1.0 Shift=0.0 PPM Start=-7.81 PPM End=7.81
 Name=choline-methylene Abbr=choline-methylene Scale=1.0 Shift=0.0 PPM Start=-7.81 PPM End=7.81
 Name=choline-trimethyl Abbr=choline-trimethyl Scale=1.0 Shift=0.0 PPM Start=-7.81 PPM End=7.81
 Name=choline-truncated Abbr=choline-truncated Scale=1.0 Shift=0.0 PPM Start=-7.81 PPM End=7.81
 Name=creatine Abbr=Cr Scale=1.0 Shift=0.0 PPM Start=-7.81 PPM End=7.81
 Name=ethanolamine Abbr=ETA Scale=1.0 Shift=0.0 PPM Start=-7.81 PPM End=7.81
 Name=gaba Abbr=GABA Scale=1.0 Shift=0.0 PPM Start=-7.81 PPM End=7.81
 Name=glutamate Abbr=Glu Scale=1.0 Shift=0.0 PPM Start=-7.81 PPM End=7.81
 Name=glutamine Abbr=Gln Scale=1.0 Shift=0.0 PPM Start=-7.81 PPM End=7.81
 Name=glutathione-glutamate Abbr=glutathione-glutamate Scale=1.0 Shift=0.0 PPM Start=-7.81 PPM End=7.81
 Name=glutathione-glycine-cysteine Abbr=GSH Scale=1.0 Shift=0.0 PPM Start=-7.81 PPM End=7.81
 Name=glycine Abbr=Gly Scale=1.0 Shift=0.0 PPM Start=-7.81 PPM End=7.81
 Name=GPC-gp Abbr=GPC-gp Scale=1.0 Shift=0.0 PPM Start=-7.81 PPM End=7.81
 Name=GPC-pcholine1 Abbr=GPC-pcholine1 Scale=1.0 Shift=0.0 PPM Start=-7.81 PPM End=7.81
 Name=GPC-pcholine2 Abbr=GPC-pcholine2 Scale=1.0 Shift=0.0 PPM Start=-7.81 PPM End=7.81
 Name=lactate Abbr=Lac Scale=1.0 Shift=0.0 PPM Start=-7.81 PPM End=7.81
 Name=myo-inositol Abbr=mI Scale=1.0 Shift=0.0 PPM Start=-7.81 PPM End=7.81
 Name=n-acetylaspartate Abbr=NAA Scale=1.0 Shift=0.0 PPM Start=-7.18 PPM End=7.81
 Name=NAAG-truncated Abbr=NAAG Scale=1.0 Shift=0.0 PPM Start=-7.81 PPM End=7.81
 Name=phosphocreatine Abbr=PCr Scale=1.0 Shift=0.0 PPM Start=-7.81 PPM End=7.81
 Name=phosphorylcholine-notrimethyl Abbr=phosphorylcholine-notrimethyl Scale=1.0 Shift=0.0 PPM Start=-7.81 PPM End=7.81
 Name=phosphorylcholine-trimethyl Abbr=phosphorylcholine-trimethyl Scale=1.0 Shift=0.0 PPM Start=-7.81 PPM End=7.81
 Name=phosphorylethanolamine Abbr=PE Scale=1.0 Shift=0.0 PPM Start=-7.81 PPM End=7.81
 Name=pyruvate Abbr=Pyr Scale=1.0 Shift=0.0 PPM Start=-7.51 PPM End=7.81
 Name=taurine Abbr=Tau Scale=1.0 Shift=0.0 PPM Start=7.81 PPM End=7.81
 Name=glucose-beta+glucose-alpha Abbr=Glc Scale=1.0 Shift=0.0 PPM Start=-7.81 PPM End=7.81
   Mixture of [metab*scale] = glucose-beta*1.000000 + glucose-alpha*1.000000
 
 ===========================================================================
 This LCModel format RAW file was created using the 
 Vespa-Simulation spectral simulation program using 
 the following settings and parameters 
 
 Sweep Width = 3500.0 Hz 
 Vector Size = 2048 points 
 Apodization = 15.0 Hz Lorentzian broadening
 B0 Field    = 127.74 MHz 
 Ref Singlet = False
  
 This data has been FFTd to be in the FREQUENCY domain
 
 $NMID ID='PE'
 FMTDAT='(2E16.6)'
 VOLUME=1.0
 TRAMP=1.0
 $END
    2.834799E+00    1.518335E+01
    2.874406E+00    1.542009E+01
    2.916248E+00    1.566481E+01
    2.960502E+00    1.591794E+01
    3.007360E+00    1.617995E+01
    3.057035E+00    1.645132E+01
    3.109760E+00    1.673260E+01
    3.165795E+00    1.702437E+01
    3.225429E+00    1.732724E+01
    3.288983E+00    1.764188E+01
    3.356816E+00    1.796904E+01
    3.429326E+00    1.830950E+01
    3.506960E+00    1.866413E+01
    3.590222E+00    1.903386E+01
    3.679676E+00    1.941971E+01
    3.775963E+00    1.982281E+01
    3.879808E+00    2.024438E+01
    3.992031E+00    2.068576E+01
    4.113573E+00    2.114843E+01
    4.245510E+00    2.163402E+01
    4.389078E+00    2.214431E+01
    4.545698E+00    2.268128E+01
    4.717016E+00    2.324714E+01
    4.904950E+00    2.384431E+01
    5.111744E+00    2.447553E+01
    5.340034E+00    2.514379E+01
    5.592928E+00    2.585248E+01
    5.874129E+00    2.660537E+01
    6.188084E+00    2.740668E+01
    6.540155E+00    2.826112E+01
    6.936859E+00    2.917392E+01
    7.386193E+00    3.015081E+01
    7.897989E+00    3.119796E+01
    8.484187E+00    3.232178E+01
    9.159035E+00    3.352897E+01
    9.939639E+00    3.482694E+01
    1.084757E+01    3.622424E+01
    1.191113E+01    3.772958E+01
    1.316711E+01    3.935003E+01
    1.466228E+01    4.108924E+01
    1.645662E+01    4.294507E+01
    1.862763E+01    4.490395E+01
    2.127357E+01    4.693024E+01
    2.451290E+01    4.894970E+01
    2.847450E+01    5.082545E+01
    3.326618E+01    5.232892E+01
    3.890438E+01    5.312724E+01
    4.521316E+01    5.284371E+01
    5.180006E+01    5.124127E+01
    5.827831E+01    4.837184E+01
    6.452594E+01    4.434074E+01
    7.041765E+01    3.897512E+01
    7.544100E+01    3.214612E+01
    7.905086E+01    2.419527E+01
    8.110099E+01    1.558136E+01
    8.146393E+01    6.512531E+00
    7.977177E+01   -2.552434E+00
    7.610106E+01   -1.071998E+01
    7.117298E+01   -1.747724E+01
    6.553800E+01   -2.296845E+01
    5.924796E+01   -2.727788E+01
    5.245954E+01   -3.011313E+01
    4.571998E+01   -3.131012E+01
    3.958247E+01   -3.111711E+01
    3.431649E+01   -2.998032E+01
    2.994122E+01   -2.830270E+01
    2.635398E+01   -2.636356E+01
    2.342005E+01   -2.433110E+01
    2.101487E+01   -2.229731E+01
    1.903764E+01   -2.030997E+01
    1.740888E+01   -1.839481E+01
    1.606282E+01   -1.656416E+01
    1.494588E+01   -1.481803E+01
    1.401968E+01   -1.314933E+01
    1.325808E+01   -1.155273E+01
    1.263830E+01   -1.002679E+01
    1.213701E+01   -8.568480E+00
    1.173356E+01   -7.170073E+00
    1.141268E+01   -5.821136E+00
    1.116399E+01   -4.511104E+00
    1.098062E+01   -3.230313E+00
    1.085800E+01   -1.970048E+00
    1.079327E+01   -7.222875E-01
    1.078494E+01    5.205691E-01
    1.083275E+01    1.765940E+00
    1.093764E+01    3.021270E+00
    1.110178E+01    4.294239E+00
    1.132870E+01    5.593004E+00
    1.162360E+01    6.926505E+00
    1.199387E+01    8.304847E+00
    1.245019E+01    9.739655E+00
    1.300844E+01    1.124394E+01
    1.369239E+01    1.283018E+01
    1.453460E+01    1.450532E+01
    1.557108E+01    1.626568E+01
    1.683253E+01    1.810169E+01
    1.834770E+01    2.001082E+01
    2.015969E+01    2.199930E+01
    2.233702E+01    2.406993E+01
    2.497576E+01    2.620833E+01
    2.820037E+01    2.836998E+01
    3.216470E+01    3.046124E+01
    3.704677E+01    3.230786E+01
    4.302242E+01    3.360676E+01
    5.018847E+01    3.386890E+01
    5.839421E+01    3.240173E+01
    6.698808E+01    2.846923E+01
    7.472427E+01    2.179619E+01
    8.035130E+01    1.312396E+01
    8.363631E+01    3.765494E+00
    8.516755E+01   -5.671725E+00
    8.511407E+01   -1.526035E+01
    8.323164E+01   -2.473349E+01
    7.962745E+01   -3.359522E+01
    7.446867E+01   -4.165692E+01
    6.764607E+01   -4.851878E+01
    5.951146E+01   -5.336658E+01
    5.108032E+01   -5.581135E+01
    4.330117E+01   -5.621041E+01
    3.662924E+01   -5.523476E+01
    3.112158E+01   -5.348155E+01
    2.664824E+01   -5.136066E+01
    2.302858E+01   -4.911978E+01
    2.009109E+01   -4.689731E+01
    1.769196E+01   -4.476526E+01
    1.571658E+01   -4.275730E+01
    1.407522E+01   -4.088544E+01
    1.269802E+01   -3.914927E+01
    1.153125E+01   -3.754115E+01
    1.053492E+01   -3.605013E+01
    9.679667E+00   -3.466585E+01
    8.942463E+00   -3.337991E+01
    8.303889E+00   -3.218493E+01
    7.747553E+00   -3.107357E+01
    7.259973E+00   -3.003857E+01
    6.830217E+00   -2.907300E+01
    6.449426E+00   -2.817049E+01
    6.110398E+00   -2.732526E+01
    5.807225E+00   -2.653214E+01
    5.535008E+00   -2.578654E+01
    5.289655E+00   -2.508433E+01
    5.067734E+00   -2.442183E+01
    4.866349E+00   -2.379575E+01
    4.683035E+00   -2.320315E+01
    4.515679E+00   -2.264138E+01
    4.362473E+00   -2.210807E+01
    4.221858E+00   -2.160106E+01
    4.092484E+00   -2.111843E+01
    3.973176E+00   -2.065841E+01
    3.862907E+00   -2.021942E+01
    3.760779E+00   -1.980000E+01
    3.666004E+00   -1.939885E+01
    3.577887E+00   -1.901476E+01
    3.495810E+00   -1.864663E+01
    3.419228E+00   -1.829346E+01
    3.347655E+00   -1.795432E+01
    3.280658E+00   -1.762837E+01
    3.217852E+00   -1.731482E+01
    3.158889E+00   -1.701296E+01
    3.103458E+00   -1.672212E+01
    3.051278E+00   -1.644168E+01
    3.002095E+00   -1.617108E+01
    2.955681E+00   -1.590978E+01
    2.911828E+00   -1.565731E+01
    2.870347E+00   -1.541319E+01
    2.831067E+00   -1.517701E+01
    2.793834E+00   -1.494837E+01
    2.758505E+00   -1.472690E+01
