 Vespa-Simulation Mixed Metabolite Output
 This file was generated by Vespa-Simulation. You can learn about and download Vespa here:
https://github.com/vespa-mrs/vespa/tree/main/vespa

 
 Output Path/Filename = /home/stud/casperc/bhome/Project1(DeepFit)/DeepFit-data-generation/Initial_spectra_linewidth_10_TE30_1024p
 Output Loop Values = (1,1,1)  ( Loop 1 = 11, Loop 2 = 11, Loop3 Inactive )
 Output Comment
 ---------------------------------------------------------------------------
 
 
 Experiment Information
 ---------------------------------------------------------------------------
 --- Experiment 982623a4-1070-4538-bb82-a4cf0a440db0 ---
 Name: SyntheticDataSetDeepFitTE22
 Public: False
 Created: 2024-10-04T10:31:50
 Comment (abbr.): 
 PI: Casper Cappelen
 b0: 127.740000
 Peak Search PPM low/high: -10.000000 / 10.000000
 Blend tol. PPM/phase: 0.000150 / 50.000000
 Pulse seq.: 43be13ae-de9a-40a1-9a2d-c872d8bjs100 (PRESS Ideal)
 0 User static parameters: 
 28 Metabolites: 2-hydroxyglutarate, alanine, choline-methylene, choline-trimethyl, choline-truncated, creatine, ethanolamine, gaba, glucose-alpha, glucose-beta, glutamate, glutamine, glutathione-glutamate, glutathione-glycine-cysteine, glycine, GPC-gp, GPC-pcholine1, GPC-pcholine2, lactate, myo-inositol, n-acetylaspartate, NAAG-truncated, phosphocreatine, phosphorylcholine-notrimethyl, phosphorylcholine-trimethyl, phosphorylethanolamine, pyruvate, taurine
 28 Simulations: (not shown)
 
 Metabolite Formatting Information
 ---------------------------------------------------------------------------
 Name=2-hydroxyglutarate Abbr=2HG Scale=1.0 Shift=0.0 PPM Start=-7.81 PPM End=7.81
 Name=alanine Abbr=Ala Scale=1.0 Shift=0.0 PPM Start=-7.81 PPM End=7.81
 Name=choline-methylene Abbr=choline-methylene Scale=1.0 Shift=0.0 PPM Start=-7.81 PPM End=7.81
 Name=choline-trimethyl Abbr=choline-trimethyl Scale=1.0 Shift=0.0 PPM Start=-7.81 PPM End=7.81
 Name=choline-truncated Abbr=choline-truncated Scale=1.0 Shift=0.0 PPM Start=-7.81 PPM End=7.81
 Name=creatine Abbr=Cr Scale=1.0 Shift=0.0 PPM Start=-7.81 PPM End=7.81
 Name=ethanolamine Abbr=ETA Scale=1.0 Shift=0.0 PPM Start=-7.81 PPM End=7.81
 Name=gaba Abbr=GABA Scale=1.0 Shift=0.0 PPM Start=-7.81 PPM End=7.81
 Name=glutamate Abbr=Glu Scale=1.0 Shift=0.0 PPM Start=-7.81 PPM End=7.81
 Name=glutamine Abbr=Gln Scale=1.0 Shift=0.0 PPM Start=-7.81 PPM End=7.81
 Name=glutathione-glutamate Abbr=glutathione-glutamate Scale=1.0 Shift=0.0 PPM Start=-7.81 PPM End=7.81
 Name=glutathione-glycine-cysteine Abbr=GSH Scale=1.0 Shift=0.0 PPM Start=-7.81 PPM End=7.81
 Name=glycine Abbr=Gly Scale=1.0 Shift=0.0 PPM Start=-7.81 PPM End=7.81
 Name=GPC-gp Abbr=GPC-gp Scale=1.0 Shift=0.0 PPM Start=-7.81 PPM End=7.81
 Name=GPC-pcholine1 Abbr=GPC-pcholine1 Scale=1.0 Shift=0.0 PPM Start=-7.81 PPM End=7.81
 Name=GPC-pcholine2 Abbr=GPC-pcholine2 Scale=1.0 Shift=0.0 PPM Start=-7.81 PPM End=7.81
 Name=lactate Abbr=Lac Scale=1.0 Shift=0.0 PPM Start=-7.81 PPM End=7.81
 Name=myo-inositol Abbr=mI Scale=1.0 Shift=0.0 PPM Start=-7.81 PPM End=7.81
 Name=n-acetylaspartate Abbr=NAA Scale=1.0 Shift=0.0 PPM Start=-7.18 PPM End=7.81
 Name=NAAG-truncated Abbr=NAAG Scale=1.0 Shift=0.0 PPM Start=-7.81 PPM End=7.81
 Name=phosphocreatine Abbr=PCr Scale=1.0 Shift=0.0 PPM Start=-7.81 PPM End=7.81
 Name=phosphorylcholine-notrimethyl Abbr=phosphorylcholine-notrimethyl Scale=1.0 Shift=0.0 PPM Start=-7.81 PPM End=7.81
 Name=phosphorylcholine-trimethyl Abbr=phosphorylcholine-trimethyl Scale=1.0 Shift=0.0 PPM Start=-7.81 PPM End=7.81
 Name=phosphorylethanolamine Abbr=PE Scale=1.0 Shift=0.0 PPM Start=-7.81 PPM End=7.81
 Name=pyruvate Abbr=Pyr Scale=1.0 Shift=0.0 PPM Start=-7.51 PPM End=7.81
 Name=taurine Abbr=Tau Scale=1.0 Shift=0.0 PPM Start=7.81 PPM End=7.81
 Name=glucose-beta+glucose-alpha Abbr=Glc Scale=1.0 Shift=0.0 PPM Start=-7.81 PPM End=7.81
   Mixture of [metab*scale] = glucose-beta*1.000000 + glucose-alpha*1.000000
 
 ===========================================================================
 This LCModel format RAW file was created using the 
 Vespa-Simulation spectral simulation program using 
 the following settings and parameters 
 
 Sweep Width = 3500.0 Hz 
 Vector Size = 2048 points 
 Apodization = 15.0 Hz Lorentzian broadening
 B0 Field    = 127.74 MHz 
 Ref Singlet = False
  
 $NMID ID='phosphorylcholine-notrimethyl'
 FMTDAT='(2E16.6)'
 VOLUME=1.0
 TRAMP=1.0
 $END
    3.586795E+00    1.417473E-05
    3.480730E+00    5.959905E-01
    3.260999E+00    1.150475E+00
    2.941095E+00    1.640352E+00
    2.539225E+00    2.046570E+00
    2.077153E+00    2.355063E+00
    1.578876E+00    2.557356E+00
    1.069216E+00    2.650843E+00
    5.724302E-01    2.638698E+00
    1.108514E-01    2.529488E+00
   -2.962326E-01    2.336467E+00
   -6.335819E-01    2.076639E+00
   -8.906382E-01    1.769640E+00
   -1.061961E+00    1.436500E+00
   -1.147268E+00    1.098389E+00
   -1.151233E+00    7.753975E-01
   -1.082994E+00    4.853927E-01
   -9.553873E-01    2.431199E-01
   -7.840357E-01    5.945376E-02
   -5.862911E-01   -5.906000E-02
   -3.801151E-01   -1.104123E-01
   -1.829727E-01   -9.702894E-02
   -1.079435E-02   -2.544704E-02
    1.229317E-01    9.425827E-02
    2.078871E-01    2.492357E-01
    2.374354E-01    4.247510E-01
    2.088983E-01    6.051640E-01
    1.235880E-01    7.749237E-01
   -1.342281E-02    9.195282E-01
   -1.936823E-01    1.026377E+00
   -4.060307E-01    1.085500E+00
   -6.373333E-01    1.090081E+00
   -8.732908E-01    1.036818E+00
   -1.099402E+00    9.260055E-01
   -1.301799E+00    7.614366E-01
   -1.468040E+00    5.501478E-01
   -1.587865E+00    3.018364E-01
   -1.653700E+00    2.834776E-02
   -1.661071E+00   -2.571708E-01
   -1.608767E+00   -5.410123E-01
   -1.498855E+00   -8.096546E-01
   -1.336447E+00   -1.050642E+00
   -1.129391E+00   -1.253135E+00
   -8.876896E-01   -1.408578E+00
   -6.229046E-01   -1.511062E+00
   -3.475210E-01   -1.557555E+00
   -7.413394E-02   -1.548028E+00
    1.852067E-01   -1.485321E+00
    4.195919E-01   -1.374895E+00
    6.199208E-01   -1.224427E+00
    7.792149E-01   -1.043321E+00
    8.930127E-01   -8.420891E-01
    9.594614E-01   -6.317293E-01
    9.792902E-01   -4.231327E-01
    9.556960E-01   -2.264204E-01
    8.940164E-01   -5.044281E-02
    8.013302E-01    9.763668E-02
    6.859833E-01    2.126800E-01
    5.570261E-01    2.918157E-01
    4.236815E-01    3.343959E-01
    2.947965E-01    3.419772E-01
    1.783167E-01    3.181259E-01
    8.091169E-02    2.680625E-01
    7.618618E-03    1.982998E-01
   -3.838774E-02    1.161797E-01
   -5.586307E-02    2.939005E-02
   -4.549872E-02   -5.451281E-02
   -9.779893E-03   -1.285647E-01
    4.724528E-02   -1.867815E-01
    1.202814E-01   -2.244897E-01
    2.031579E-01   -2.385605E-01
    2.892649E-01   -2.275258E-01
    3.719436E-01   -1.916232E-01
    4.449142E-01   -1.327178E-01
    5.026546E-01   -5.409825E-02
    5.406893E-01    3.972067E-02
    5.558452E-01    1.433308E-01
    5.463897E-01    2.508238E-01
    5.121005E-01    3.560904E-01
    4.542390E-01    4.532256E-01
    3.753972E-01    5.369000E-01
    2.793567E-01    6.025935E-01
    1.708027E-01    6.468766E-01
    5.504761E-02    6.675636E-01
   -6.234944E-02    6.638069E-01
   -1.758237E-01    6.360884E-01
   -2.801623E-01    5.861669E-01
   -3.708235E-01    5.169102E-01
   -4.440902E-01    4.321238E-01
   -4.972924E-01    3.362977E-01
   -5.289320E-01    2.342923E-01
   -5.386719E-01    1.311128E-01
   -5.273384E-01    3.159888E-02
   -4.968200E-01   -5.987275E-02
   -4.499059E-01   -1.395430E-01
   -3.901007E-01   -2.044864E-01
   -3.213751E-01   -2.527567E-01
   -2.479439E-01   -2.833942E-01
   -1.740030E-01   -2.964642E-01
   -1.035035E-01   -2.929879E-01
   -3.991569E-02   -2.748425E-01
    1.390429E-02   -2.445906E-01
    5.586447E-02   -2.053089E-01
    8.472646E-02   -1.603728E-01
    1.001005E-01   -1.132496E-01
    1.024378E-01   -6.728964E-02
    9.295694E-02   -2.552662E-02
    7.351711E-02    9.470214E-03
    4.648006E-02    3.573114E-02
    1.453458E-02    5.197354E-02
   -1.947984E-02    5.763314E-02
   -5.275531E-02    5.286553E-02
   -8.268454E-02    3.849696E-02
   -1.070087E-01    1.594413E-02
   -1.239432E-01   -1.291976E-02
   -1.322548E-01   -4.587742E-02
   -1.313179E-01   -8.053466E-02
   -1.211228E-01   -1.144714E-01
   -1.022491E-01   -1.453906E-01
   -7.580447E-02   -1.712525E-01
   -4.334342E-02   -1.903855E-01
   -6.723186E-03   -2.015808E-01
    3.197455E-02   -2.041300E-01
    7.060634E-02   -1.978588E-01
    1.070896E-01   -1.831125E-01
    1.395228E-01   -1.607144E-01
    1.662840E-01   -1.319051E-01
    1.861370E-01   -9.822584E-02
    1.982502E-01   -6.145531E-02
    2.022523E-01   -2.347238E-02
    1.982264E-01    1.385000E-02
    1.866853E-01    4.875136E-02
    1.685251E-01    7.967115E-02
    1.449440E-01    1.053568E-01
    1.173759E-01    1.248744E-01
    8.738795E-02    1.376753E-01
    5.658759E-02    1.435985E-01
    2.652969E-02    1.428589E-01
   -1.367765E-03    1.360134E-01
   -2.589024E-02    1.239114E-01
   -4.610450E-02    1.076252E-01
   -6.136143E-02    8.837968E-02
   -7.133683E-02    6.747203E-02
   -7.602331E-02    4.619284E-02
   -7.570971E-02    2.575298E-02
   -7.094441E-02    7.222526E-03
   -6.248725E-02   -8.533905E-03
   -5.124743E-02   -2.087428E-02
   -3.822277E-02   -2.941346E-02
   -2.443388E-02   -3.402434E-02
   -1.086210E-02   -3.482688E-02
    1.606000E-03   -3.216305E-02
    1.222357E-02   -2.656085E-02
    2.042333E-02   -1.868710E-02
    2.583100E-02   -9.299204E-03
    2.827945E-02    8.084246E-04
    2.780258E-02    1.085541E-02
    2.461883E-02    2.012223E-02
    1.910584E-02    2.798921E-02
    1.176141E-02    3.397134E-02
    3.170569E-03    3.773291E-02
   -6.040363E-03    3.910186E-02
   -1.524440E-02    3.806805E-02
   -2.385257E-02    3.477272E-02
   -3.134760E-02    2.948950E-02
   -3.730974E-02    2.260012E-02
   -4.143999E-02    1.455759E-02
   -4.356342E-02    5.862279E-03
   -4.363593E-02   -2.977157E-03
