 Vespa-Simulation Mixed Metabolite Output
 This file was generated by Vespa-Simulation. You can learn about and download Vespa here:
https://github.com/vespa-mrs/vespa/tree/main/vespa

 
 Output Path/Filename = /home/stud/casperc/bhome/Project1(DeepFit)/DeepFit-data-generation/Initial_spectra_linewidth_10_TE30_1024p
 Output Loop Values = (1,1,1)  ( Loop 1 = 11, Loop 2 = 11, Loop3 Inactive )
 Output Comment
 ---------------------------------------------------------------------------
 
 
 Experiment Information
 ---------------------------------------------------------------------------
 --- Experiment 982623a4-1070-4538-bb82-a4cf0a440db0 ---
 Name: SyntheticDataSetDeepFitTE22
 Public: False
 Created: 2024-10-04T10:31:50
 Comment (abbr.): 
 PI: Casper Cappelen
 b0: 127.740000
 Peak Search PPM low/high: -10.000000 / 10.000000
 Blend tol. PPM/phase: 0.000150 / 50.000000
 Pulse seq.: 43be13ae-de9a-40a1-9a2d-c872d8bjs100 (PRESS Ideal)
 0 User static parameters: 
 28 Metabolites: 2-hydroxyglutarate, alanine, choline-methylene, choline-trimethyl, choline-truncated, creatine, ethanolamine, gaba, glucose-alpha, glucose-beta, glutamate, glutamine, glutathione-glutamate, glutathione-glycine-cysteine, glycine, GPC-gp, GPC-pcholine1, GPC-pcholine2, lactate, myo-inositol, n-acetylaspartate, NAAG-truncated, phosphocreatine, phosphorylcholine-notrimethyl, phosphorylcholine-trimethyl, phosphorylethanolamine, pyruvate, taurine
 28 Simulations: (not shown)
 
 Metabolite Formatting Information
 ---------------------------------------------------------------------------
 Name=2-hydroxyglutarate Abbr=2HG Scale=1.0 Shift=0.0 PPM Start=-7.81 PPM End=7.81
 Name=alanine Abbr=Ala Scale=1.0 Shift=0.0 PPM Start=-7.81 PPM End=7.81
 Name=choline-methylene Abbr=choline-methylene Scale=1.0 Shift=0.0 PPM Start=-7.81 PPM End=7.81
 Name=choline-trimethyl Abbr=choline-trimethyl Scale=1.0 Shift=0.0 PPM Start=-7.81 PPM End=7.81
 Name=choline-truncated Abbr=choline-truncated Scale=1.0 Shift=0.0 PPM Start=-7.81 PPM End=7.81
 Name=creatine Abbr=Cr Scale=1.0 Shift=0.0 PPM Start=-7.81 PPM End=7.81
 Name=ethanolamine Abbr=ETA Scale=1.0 Shift=0.0 PPM Start=-7.81 PPM End=7.81
 Name=gaba Abbr=GABA Scale=1.0 Shift=0.0 PPM Start=-7.81 PPM End=7.81
 Name=glutamate Abbr=Glu Scale=1.0 Shift=0.0 PPM Start=-7.81 PPM End=7.81
 Name=glutamine Abbr=Gln Scale=1.0 Shift=0.0 PPM Start=-7.81 PPM End=7.81
 Name=glutathione-glutamate Abbr=glutathione-glutamate Scale=1.0 Shift=0.0 PPM Start=-7.81 PPM End=7.81
 Name=glutathione-glycine-cysteine Abbr=GSH Scale=1.0 Shift=0.0 PPM Start=-7.81 PPM End=7.81
 Name=glycine Abbr=Gly Scale=1.0 Shift=0.0 PPM Start=-7.81 PPM End=7.81
 Name=GPC-gp Abbr=GPC-gp Scale=1.0 Shift=0.0 PPM Start=-7.81 PPM End=7.81
 Name=GPC-pcholine1 Abbr=GPC-pcholine1 Scale=1.0 Shift=0.0 PPM Start=-7.81 PPM End=7.81
 Name=GPC-pcholine2 Abbr=GPC-pcholine2 Scale=1.0 Shift=0.0 PPM Start=-7.81 PPM End=7.81
 Name=lactate Abbr=Lac Scale=1.0 Shift=0.0 PPM Start=-7.81 PPM End=7.81
 Name=myo-inositol Abbr=mI Scale=1.0 Shift=0.0 PPM Start=-7.81 PPM End=7.81
 Name=n-acetylaspartate Abbr=NAA Scale=1.0 Shift=0.0 PPM Start=-7.18 PPM End=7.81
 Name=NAAG-truncated Abbr=NAAG Scale=1.0 Shift=0.0 PPM Start=-7.81 PPM End=7.81
 Name=phosphocreatine Abbr=PCr Scale=1.0 Shift=0.0 PPM Start=-7.81 PPM End=7.81
 Name=phosphorylcholine-notrimethyl Abbr=phosphorylcholine-notrimethyl Scale=1.0 Shift=0.0 PPM Start=-7.81 PPM End=7.81
 Name=phosphorylcholine-trimethyl Abbr=phosphorylcholine-trimethyl Scale=1.0 Shift=0.0 PPM Start=-7.81 PPM End=7.81
 Name=phosphorylethanolamine Abbr=PE Scale=1.0 Shift=0.0 PPM Start=-7.81 PPM End=7.81
 Name=pyruvate Abbr=Pyr Scale=1.0 Shift=0.0 PPM Start=-7.51 PPM End=7.81
 Name=taurine Abbr=Tau Scale=1.0 Shift=0.0 PPM Start=7.81 PPM End=7.81
 Name=glucose-beta+glucose-alpha Abbr=Glc Scale=1.0 Shift=0.0 PPM Start=-7.81 PPM End=7.81
   Mixture of [metab*scale] = glucose-beta*1.000000 + glucose-alpha*1.000000
 
 ===========================================================================
 This LCModel format RAW file was created using the 
 Vespa-Simulation spectral simulation program using 
 the following settings and parameters 
 
 Sweep Width = 3500.0 Hz 
 Vector Size = 2048 points 
 Apodization = 15.0 Hz Lorentzian broadening
 B0 Field    = 127.74 MHz 
 Ref Singlet = False
  
 This data has been FFTd to be in the FREQUENCY domain
 
 $NMID ID='phosphorylcholine-trimethyl'
 FMTDAT='(2E16.6)'
 VOLUME=1.0
 TRAMP=1.0
 $END
    5.543731E+00    2.600700E+01
    5.562509E+00    2.624620E+01
    5.581789E+00    2.648967E+01
    5.601563E+00    2.673756E+01
    5.621858E+00    2.699003E+01
    5.642732E+00    2.724722E+01
    5.664241E+00    2.750924E+01
    5.686403E+00    2.777619E+01
    5.709223E+00    2.804822E+01
    5.732719E+00    2.832546E+01
    5.756922E+00    2.860808E+01
    5.781858E+00    2.889622E+01
    5.807527E+00    2.919003E+01
    5.833935E+00    2.948972E+01
    5.861132E+00    2.979551E+01
    5.889192E+00    3.010757E+01
    5.918159E+00    3.042608E+01
    5.948043E+00    3.075121E+01
    5.978868E+00    3.108320E+01
    6.010698E+00    3.142230E+01
    6.043592E+00    3.176870E+01
    6.077570E+00    3.212262E+01
    6.112652E+00    3.248436E+01
    6.148921E+00    3.285421E+01
    6.186495E+00    3.323243E+01
    6.225435E+00    3.361924E+01
    6.265733E+00    3.401490E+01
    6.307409E+00    3.441979E+01
    6.350585E+00    3.483429E+01
    6.395391E+00    3.525868E+01
    6.441831E+00    3.569326E+01
    6.489894E+00    3.613848E+01
    6.539773E+00    3.659487E+01
    6.591672E+00    3.706272E+01
    6.645587E+00    3.754237E+01
    6.701544E+00    3.803439E+01
    6.759749E+00    3.853932E+01
    6.820372E+00    3.905759E+01
    6.883470E+00    3.958967E+01
    6.949118E+00    4.013618E+01
    7.017499E+00    4.069780E+01
    7.088829E+00    4.127512E+01
    7.163272E+00    4.186877E+01
    7.240967E+00    4.247945E+01
    7.322094E+00    4.310792E+01
    7.406887E+00    4.375500E+01
    7.495585E+00    4.442150E+01
    7.588416E+00    4.510829E+01
    7.685619E+00    4.581633E+01
    7.787479E+00    4.654662E+01
    7.894320E+00    4.730024E+01
    8.006473E+00    4.807830E+01
    8.124277E+00    4.888201E+01
    8.248112E+00    4.971266E+01
    8.378415E+00    5.057165E+01
    8.515670E+00    5.146043E+01
    8.660371E+00    5.238055E+01
    8.813041E+00    5.333367E+01
    8.974269E+00    5.432162E+01
    9.144723E+00    5.534635E+01
    9.325124E+00    5.640989E+01
    9.516232E+00    5.751449E+01
    9.718888E+00    5.866256E+01
    9.934043E+00    5.985674E+01
    1.016277E+01    6.109983E+01
    1.040623E+01    6.239489E+01
    1.066571E+01    6.374519E+01
    1.094264E+01    6.515432E+01
    1.123862E+01    6.662620E+01
    1.155543E+01    6.816505E+01
    1.189507E+01    6.977550E+01
    1.225977E+01    7.146262E+01
    1.265206E+01    7.323196E+01
    1.307481E+01    7.508958E+01
    1.353122E+01    7.704214E+01
    1.402492E+01    7.909698E+01
    1.456004E+01    8.126226E+01
    1.514133E+01    8.354697E+01
    1.577423E+01    8.596110E+01
    1.646499E+01    8.851576E+01
    1.722086E+01    9.122330E+01
    1.805022E+01    9.409758E+01
    1.896288E+01    9.715407E+01
    1.997027E+01    1.004102E+02
    2.108585E+01    1.038854E+02
    2.232551E+01    1.076021E+02
    2.370813E+01    1.115852E+02
    2.525629E+01    1.158633E+02
    2.699718E+01    1.204691E+02
    2.896377E+01    1.254397E+02
    3.119622E+01    1.308178E+02
    3.374390E+01    1.366525E+02
    3.666796E+01    1.430001E+02
    4.004472E+01    1.499256E+02
    4.397041E+01    1.575038E+02
    4.856752E+01    1.658208E+02
    5.399363E+01    1.749748E+02
    6.045357E+01    1.850768E+02
    6.821665E+01    1.962497E+02
    7.764100E+01    2.086247E+02
    8.920851E+01    2.223311E+02
    1.035746E+02    2.374753E+02
    1.216388E+02    2.540955E+02
    1.446416E+02    2.720726E+02
    1.742881E+02    2.909529E+02
    2.128745E+02    3.096067E+02
    2.633175E+02    3.255925E+02
    3.287833E+02    3.340668E+02
    4.111607E+02    3.262758E+02
    5.070837E+02    2.887250E+02
    6.012563E+02    2.068526E+02
    6.636618E+02    7.828982E+01
    6.650995E+02   -7.206205E+01
    6.048047E+02   -2.022681E+02
    5.112885E+02   -2.862320E+02
    4.150191E+02   -3.253954E+02
    3.319385E+02   -3.341459E+02
    2.657734E+02   -3.261517E+02
    2.147549E+02   -3.103646E+02
    1.757278E+02   -2.917620E+02
    1.457526E+02   -2.728618E+02
    1.225059E+02   -2.548337E+02
    1.042599E+02   -2.381518E+02
    8.975690E+01   -2.229450E+02
    7.808519E+01   -2.091794E+02
    6.858054E+01   -1.967504E+02
    6.075484E+01   -1.855290E+02
    5.424548E+01   -1.753841E+02
    4.877995E+01   -1.661921E+02
    4.415110E+01   -1.578415E+02
    4.019966E+01   -1.502337E+02
    3.680180E+01   -1.432821E+02
    3.386025E+01   -1.369114E+02
    3.129790E+01   -1.310562E+02
    2.905306E+01   -1.256598E+02
    2.707597E+01   -1.206727E+02
    2.532613E+01   -1.160522E+02
    2.377035E+01   -1.117608E+02
    2.238123E+01   -1.077657E+02
    2.113597E+01   -1.040383E+02
    2.001551E+01   -1.005533E+02
    1.900381E+01   -9.728835E+01
    1.808732E+01   -9.422381E+01
    1.725454E+01   -9.134214E+01
    1.649565E+01   -8.862776E+01
    1.580222E+01   -8.606681E+01
    1.516698E+01   -8.364686E+01
    1.458363E+01   -8.135678E+01
    1.404670E+01   -7.918655E+01
    1.355142E+01   -7.712715E+01
    1.309359E+01   -7.517044E+01
    1.266952E+01   -7.330900E+01
    1.227597E+01   -7.153610E+01
    1.191011E+01   -6.984563E+01
    1.156943E+01   -6.823202E+01
    1.125167E+01   -6.669022E+01
    1.095482E+01   -6.521558E+01
    1.067709E+01   -6.380384E+01
    1.041690E+01   -6.245108E+01
    1.017279E+01   -6.115373E+01
    9.943461E+00   -5.990847E+01
    9.727755E+00   -5.871222E+01
    9.524636E+00   -5.756218E+01
    9.333149E+00   -5.645576E+01
    9.152406E+00   -5.539055E+01
    8.981600E+00   -5.436429E+01
    8.820017E+00   -5.337487E+01
    8.667022E+00   -5.242036E+01
