 Vespa-Simulation Mixed Metabolite Output
 This file was generated by Vespa-Simulation. You can learn about and download Vespa here:
https://github.com/vespa-mrs/vespa/tree/main/vespa

 
 Output Path/Filename = /home/stud/casperc/bhome/Project1(DeepFit)/DeepFit-data-generation/Initial_spectra_linewidth_10_TE30_1024p
 Output Loop Values = (1,1,1)  ( Loop 1 = 11, Loop 2 = 11, Loop3 Inactive )
 Output Comment
 ---------------------------------------------------------------------------
 
 
 Experiment Information
 ---------------------------------------------------------------------------
 --- Experiment 982623a4-1070-4538-bb82-a4cf0a440db0 ---
 Name: SyntheticDataSetDeepFitTE22
 Public: False
 Created: 2024-10-04T10:31:50
 Comment (abbr.): 
 PI: Casper Cappelen
 b0: 127.740000
 Peak Search PPM low/high: -10.000000 / 10.000000
 Blend tol. PPM/phase: 0.000150 / 50.000000
 Pulse seq.: 43be13ae-de9a-40a1-9a2d-c872d8bjs100 (PRESS Ideal)
 0 User static parameters: 
 28 Metabolites: 2-hydroxyglutarate, alanine, choline-methylene, choline-trimethyl, choline-truncated, creatine, ethanolamine, gaba, glucose-alpha, glucose-beta, glutamate, glutamine, glutathione-glutamate, glutathione-glycine-cysteine, glycine, GPC-gp, GPC-pcholine1, GPC-pcholine2, lactate, myo-inositol, n-acetylaspartate, NAAG-truncated, phosphocreatine, phosphorylcholine-notrimethyl, phosphorylcholine-trimethyl, phosphorylethanolamine, pyruvate, taurine
 28 Simulations: (not shown)
 
 Metabolite Formatting Information
 ---------------------------------------------------------------------------
 Name=2-hydroxyglutarate Abbr=2HG Scale=1.0 Shift=0.0 PPM Start=-7.81 PPM End=7.81
 Name=alanine Abbr=Ala Scale=1.0 Shift=0.0 PPM Start=-7.81 PPM End=7.81
 Name=choline-methylene Abbr=choline-methylene Scale=1.0 Shift=0.0 PPM Start=-7.81 PPM End=7.81
 Name=choline-trimethyl Abbr=choline-trimethyl Scale=1.0 Shift=0.0 PPM Start=-7.81 PPM End=7.81
 Name=choline-truncated Abbr=choline-truncated Scale=1.0 Shift=0.0 PPM Start=-7.81 PPM End=7.81
 Name=creatine Abbr=Cr Scale=1.0 Shift=0.0 PPM Start=-7.81 PPM End=7.81
 Name=ethanolamine Abbr=ETA Scale=1.0 Shift=0.0 PPM Start=-7.81 PPM End=7.81
 Name=gaba Abbr=GABA Scale=1.0 Shift=0.0 PPM Start=-7.81 PPM End=7.81
 Name=glutamate Abbr=Glu Scale=1.0 Shift=0.0 PPM Start=-7.81 PPM End=7.81
 Name=glutamine Abbr=Gln Scale=1.0 Shift=0.0 PPM Start=-7.81 PPM End=7.81
 Name=glutathione-glutamate Abbr=glutathione-glutamate Scale=1.0 Shift=0.0 PPM Start=-7.81 PPM End=7.81
 Name=glutathione-glycine-cysteine Abbr=GSH Scale=1.0 Shift=0.0 PPM Start=-7.81 PPM End=7.81
 Name=glycine Abbr=Gly Scale=1.0 Shift=0.0 PPM Start=-7.81 PPM End=7.81
 Name=GPC-gp Abbr=GPC-gp Scale=1.0 Shift=0.0 PPM Start=-7.81 PPM End=7.81
 Name=GPC-pcholine1 Abbr=GPC-pcholine1 Scale=1.0 Shift=0.0 PPM Start=-7.81 PPM End=7.81
 Name=GPC-pcholine2 Abbr=GPC-pcholine2 Scale=1.0 Shift=0.0 PPM Start=-7.81 PPM End=7.81
 Name=lactate Abbr=Lac Scale=1.0 Shift=0.0 PPM Start=-7.81 PPM End=7.81
 Name=myo-inositol Abbr=mI Scale=1.0 Shift=0.0 PPM Start=-7.81 PPM End=7.81
 Name=n-acetylaspartate Abbr=NAA Scale=1.0 Shift=0.0 PPM Start=-7.18 PPM End=7.81
 Name=NAAG-truncated Abbr=NAAG Scale=1.0 Shift=0.0 PPM Start=-7.81 PPM End=7.81
 Name=phosphocreatine Abbr=PCr Scale=1.0 Shift=0.0 PPM Start=-7.81 PPM End=7.81
 Name=phosphorylcholine-notrimethyl Abbr=phosphorylcholine-notrimethyl Scale=1.0 Shift=0.0 PPM Start=-7.81 PPM End=7.81
 Name=phosphorylcholine-trimethyl Abbr=phosphorylcholine-trimethyl Scale=1.0 Shift=0.0 PPM Start=-7.81 PPM End=7.81
 Name=phosphorylethanolamine Abbr=PE Scale=1.0 Shift=0.0 PPM Start=-7.81 PPM End=7.81
 Name=pyruvate Abbr=Pyr Scale=1.0 Shift=0.0 PPM Start=-7.51 PPM End=7.81
 Name=taurine Abbr=Tau Scale=1.0 Shift=0.0 PPM Start=7.81 PPM End=7.81
 Name=glucose-beta+glucose-alpha Abbr=Glc Scale=1.0 Shift=0.0 PPM Start=-7.81 PPM End=7.81
   Mixture of [metab*scale] = glucose-beta*1.000000 + glucose-alpha*1.000000
 
 ===========================================================================
 This LCModel format RAW file was created using the 
 Vespa-Simulation spectral simulation program using 
 the following settings and parameters 
 
 Sweep Width = 3500.0 Hz 
 Vector Size = 2048 points 
 Apodization = 15.0 Hz Lorentzian broadening
 B0 Field    = 127.74 MHz 
 Ref Singlet = False
  
 $NMID ID='phosphorylcholine-trimethyl'
 FMTDAT='(2E16.6)'
 VOLUME=1.0
 TRAMP=1.0
 $END
    9.000000E+00   -2.361392E-16
    8.364953E+00    2.979176E+00
    6.788552E+00    5.537927E+00
    4.476384E+00    7.394310E+00
    1.712866E+00    8.354333E+00
   -1.173442E+00    8.331838E+00
   -3.848645E+00    7.355505E+00
   -6.011906E+00    5.562511E+00
   -7.428997E+00    3.179968E+00
   -7.957435E+00    4.964327E-01
   -7.560284E+00   -2.172652E+00
   -6.307629E+00   -4.521959E+00
   -4.365710E+00   -6.290829E+00
   -1.975265E+00   -7.292082E+00
    5.779432E-01   -7.431398E+00
    2.997073E+00   -6.715736E+00
    5.008645E+00   -5.249772E+00
    6.393013E+00   -3.221376E+00
    7.008257E+00   -8.778513E-01
    6.804342E+00    1.503932E+00
    5.826387E+00    3.650192E+00
    4.206981E+00    5.321286E+00
    2.148674E+00    6.338408E+00
   -1.010465E-01    6.602420E+00
   -2.279455E+00    6.103096E+00
   -4.138866E+00    4.917907E+00
   -5.474754E+00    3.200843E+00
   -6.147988E+00    1.162765E+00
   -6.099074E+00   -9.544281E-01
   -5.352796E+00   -2.905973E+00
   -4.013185E+00   -4.472788E+00
   -2.249392E+00   -5.485644E+00
   -2.748429E-01   -5.843165E+00
    1.678729E+00   -5.521853E+00
    3.388150E+00   -4.576511E+00
    4.663981E+00   -3.132065E+00
    5.371672E+00   -1.367157E+00
    5.445201E+00    5.074156E-01
    4.893029E+00    2.274059E+00
    3.794989E+00    3.733315E+00
    2.291432E+00    4.726096E+00
    5.652798E-01    5.151131E+00
   -1.179711E+00    4.974789E+00
   -2.743204E+00    4.233268E+00
   -3.950958E+00    3.026484E+00
   -4.673994E+00    1.505109E+00
   -4.842416E+00   -1.482559E-01
   -4.451643E+00   -1.740760E+00
   -3.561319E+00   -3.091497E+00
   -2.286655E+00   -4.052241E+00
   -7.839555E-01   -4.523237E+00
    7.686219E-01   -4.463583E+00
    2.191948E+00   -3.894184E+00
    3.326321E+00   -2.893844E+00
    4.049526E+00   -1.588593E+00
    4.289645E+00   -1.359975E-01
    4.031973E+00    1.293584E+00
    3.319313E+00    2.536918E+00
    2.245306E+00    3.456684E+00
    9.426172E-01    3.956025E+00
   -4.333540E-01    3.988917E+00
   -1.723211E+00    3.563996E+00
   -2.781392E+00    2.742081E+00
   -3.492792E+00    1.627957E+00
   -3.785226E+00    3.568783E-01
   -3.636265E+00   -9.213131E-01
   -3.074748E+00   -2.059932E+00
   -2.175893E+00   -2.932398E+00
   -1.051654E+00   -3.445757E+00
    1.631890E-01   -3.550739E+00
    1.326988E+00   -3.246198E+00
    2.307928E+00   -2.577869E+00
    2.998415E+00   -1.631982E+00
    3.327055E+00   -5.243462E-01
    3.265860E+00    6.139955E-01
    2.832163E+00    1.651755E+00
    2.085599E+00    2.472675E+00
    1.119912E+00    2.988583E+00
    5.158864E-02    3.148420E+00
   -9.941943E-01    2.943358E+00
   -1.898370E+00    2.406562E+00
   -2.561049E+00    1.608337E+00
   -2.912735E+00    6.470736E-01
   -2.921411E+00   -3.627112E-01
   -2.595200E+00   -1.304180E+00
   -1.980357E+00   -2.071233E+00
   -1.155044E+00   -2.580604E+00
   -2.192927E-01   -2.780858E+00
    7.167181E-01   -2.657224E+00
    1.545704E+00   -2.232505E+00
    2.175652E+00   -1.563304E+00
    2.539626E+00   -7.327948E-01
    2.603001E+00    1.595371E-01
    2.366514E+00    1.009941E+00
    1.865209E+00    1.722054E+00
    1.163599E+00    2.217947E+00
    3.472935E-01    2.446624E+00
   -4.871091E-01    2.388946E+00
   -1.243541E+00    2.059129E+00
   -1.837384E+00    1.502228E+00
   -2.205010E+00    7.880038E-01
   -2.310267E+00    2.483880E-03
   -2.148087E+00   -7.624015E-01
   -1.744137E+00   -1.419677E+00
   -1.151115E+00   -1.896855E+00
   -4.420287E-01   -2.144047E+00
    2.988977E-01   -2.139079E+00
    9.858977E-01   -1.889196E+00
    1.541671E+00   -1.429566E+00
    1.906110E+00   -8.183582E-01
    2.042506E+00   -1.296402E-01
    1.941295E+00    5.556307E-01
    1.620384E+00    1.159043E+00
    1.122444E+00    1.613596E+00
    5.090984E-01    1.871294E+00
   -1.462725E-01    1.907775E+00
   -7.674743E-01    1.724736E+00
   -1.284252E+00    1.348980E+00
   -1.640179E+00    8.286705E-01
   -1.798754E+00    2.272550E-01
   -1.747074E+00   -3.841362E-01
   -1.496636E+00   -9.353575E-01
   -1.081401E+00   -1.364781E+00
   -5.533154E-01   -1.626450E+00
    2.412572E-02   -1.694845E+00
    5.834613E-01   -1.567265E+00
    1.061039E+00   -1.263581E+00
    1.404447E+00   -8.231876E-01
    1.577842E+00   -3.001922E-01
    1.565876E+00    2.432971E-01
    1.374845E+00    7.444753E-01
    1.031391E+00    1.147053E+00
    5.789727E-01    1.407504E+00
    7.219787E-02    1.499842E+00
   -4.293835E-01    1.417908E+00
   -8.684494E-01    1.175719E+00
   -1.196363E+00    8.052769E-01
   -1.378511E+00    3.524268E-01
   -1.397902E+00   -1.287648E-01
   -1.256664E+00   -5.823638E-01
   -9.752120E-01   -9.572590E-01
   -5.895203E-01   -1.212532E+00
   -1.465419E-01   -1.322119E+00
    3.014545E-01   -1.277336E+00
    7.030144E-01   -1.087414E+00
    1.013335E+00   -7.780123E-01
    1.199373E+00   -3.876731E-01
    1.243072E+00    3.670619E-02
    1.143206E+00    4.456053E-01
    9.150308E-01    7.925931E-01
    5.880944E-01    1.039564E+00
    2.024737E-01    1.160884E+00
   -1.960445E-01    1.146002E+00
   -5.615677E-01    1.000241E+00
   -8.530476E-01    7.437671E-01
   -1.039060E+00    4.089035E-01
   -1.101099E+00    3.609394E-02
   -1.035350E+00   -3.309454E-01
   -8.527705E-01   -6.502822E-01
   -5.773360E-01   -8.866856E-01
   -2.430813E-01   -1.015232E+00
    1.101395E-01   -1.024060E+00
    4.413584E-01   -9.153403E-01
    7.132162E-01   -7.046497E-01
    8.961471E-01   -4.188343E-01
    9.715533E-01   -9.267610E-02
    9.336757E-01    2.354730E-01
    7.898450E-01    5.279283E-01
    5.593530E-01    7.521354E-01
