 Vespa-Simulation Mixed Metabolite Output
 This file was generated by Vespa-Simulation. You can learn about and download Vespa here:
https://github.com/vespa-mrs/vespa/tree/main/vespa

 
 Output Path/Filename = /home/stud/casperc/bhome/Project1(DeepFit)/DeepFit-data-generation/Initial_spectra_linewidth_10_TE30_1024p
 Output Loop Values = (1,1,1)  ( Loop 1 = 11, Loop 2 = 11, Loop3 Inactive )
 Output Comment
 ---------------------------------------------------------------------------
 
 
 Experiment Information
 ---------------------------------------------------------------------------
 --- Experiment 982623a4-1070-4538-bb82-a4cf0a440db0 ---
 Name: SyntheticDataSetDeepFitTE22
 Public: False
 Created: 2024-10-04T10:31:50
 Comment (abbr.): 
 PI: Casper Cappelen
 b0: 127.740000
 Peak Search PPM low/high: -10.000000 / 10.000000
 Blend tol. PPM/phase: 0.000150 / 50.000000
 Pulse seq.: 43be13ae-de9a-40a1-9a2d-c872d8bjs100 (PRESS Ideal)
 0 User static parameters: 
 28 Metabolites: 2-hydroxyglutarate, alanine, choline-methylene, choline-trimethyl, choline-truncated, creatine, ethanolamine, gaba, glucose-alpha, glucose-beta, glutamate, glutamine, glutathione-glutamate, glutathione-glycine-cysteine, glycine, GPC-gp, GPC-pcholine1, GPC-pcholine2, lactate, myo-inositol, n-acetylaspartate, NAAG-truncated, phosphocreatine, phosphorylcholine-notrimethyl, phosphorylcholine-trimethyl, phosphorylethanolamine, pyruvate, taurine
 28 Simulations: (not shown)
 
 Metabolite Formatting Information
 ---------------------------------------------------------------------------
 Name=2-hydroxyglutarate Abbr=2HG Scale=1.0 Shift=0.0 PPM Start=-7.81 PPM End=7.81
 Name=alanine Abbr=Ala Scale=1.0 Shift=0.0 PPM Start=-7.81 PPM End=7.81
 Name=choline-methylene Abbr=choline-methylene Scale=1.0 Shift=0.0 PPM Start=-7.81 PPM End=7.81
 Name=choline-trimethyl Abbr=choline-trimethyl Scale=1.0 Shift=0.0 PPM Start=-7.81 PPM End=7.81
 Name=choline-truncated Abbr=choline-truncated Scale=1.0 Shift=0.0 PPM Start=-7.81 PPM End=7.81
 Name=creatine Abbr=Cr Scale=1.0 Shift=0.0 PPM Start=-7.81 PPM End=7.81
 Name=ethanolamine Abbr=ETA Scale=1.0 Shift=0.0 PPM Start=-7.81 PPM End=7.81
 Name=gaba Abbr=GABA Scale=1.0 Shift=0.0 PPM Start=-7.81 PPM End=7.81
 Name=glutamate Abbr=Glu Scale=1.0 Shift=0.0 PPM Start=-7.81 PPM End=7.81
 Name=glutamine Abbr=Gln Scale=1.0 Shift=0.0 PPM Start=-7.81 PPM End=7.81
 Name=glutathione-glutamate Abbr=glutathione-glutamate Scale=1.0 Shift=0.0 PPM Start=-7.81 PPM End=7.81
 Name=glutathione-glycine-cysteine Abbr=GSH Scale=1.0 Shift=0.0 PPM Start=-7.81 PPM End=7.81
 Name=glycine Abbr=Gly Scale=1.0 Shift=0.0 PPM Start=-7.81 PPM End=7.81
 Name=GPC-gp Abbr=GPC-gp Scale=1.0 Shift=0.0 PPM Start=-7.81 PPM End=7.81
 Name=GPC-pcholine1 Abbr=GPC-pcholine1 Scale=1.0 Shift=0.0 PPM Start=-7.81 PPM End=7.81
 Name=GPC-pcholine2 Abbr=GPC-pcholine2 Scale=1.0 Shift=0.0 PPM Start=-7.81 PPM End=7.81
 Name=lactate Abbr=Lac Scale=1.0 Shift=0.0 PPM Start=-7.81 PPM End=7.81
 Name=myo-inositol Abbr=mI Scale=1.0 Shift=0.0 PPM Start=-7.81 PPM End=7.81
 Name=n-acetylaspartate Abbr=NAA Scale=1.0 Shift=0.0 PPM Start=-7.18 PPM End=7.81
 Name=NAAG-truncated Abbr=NAAG Scale=1.0 Shift=0.0 PPM Start=-7.81 PPM End=7.81
 Name=phosphocreatine Abbr=PCr Scale=1.0 Shift=0.0 PPM Start=-7.81 PPM End=7.81
 Name=phosphorylcholine-notrimethyl Abbr=phosphorylcholine-notrimethyl Scale=1.0 Shift=0.0 PPM Start=-7.81 PPM End=7.81
 Name=phosphorylcholine-trimethyl Abbr=phosphorylcholine-trimethyl Scale=1.0 Shift=0.0 PPM Start=-7.81 PPM End=7.81
 Name=phosphorylethanolamine Abbr=PE Scale=1.0 Shift=0.0 PPM Start=-7.81 PPM End=7.81
 Name=pyruvate Abbr=Pyr Scale=1.0 Shift=0.0 PPM Start=-7.51 PPM End=7.81
 Name=taurine Abbr=Tau Scale=1.0 Shift=0.0 PPM Start=7.81 PPM End=7.81
 Name=glucose-beta+glucose-alpha Abbr=Glc Scale=1.0 Shift=0.0 PPM Start=-7.81 PPM End=7.81
   Mixture of [metab*scale] = glucose-beta*1.000000 + glucose-alpha*1.000000
 
 ===========================================================================
 This LCModel format RAW file was created using the 
 Vespa-Simulation spectral simulation program using 
 the following settings and parameters 
 
 Sweep Width = 3500.0 Hz 
 Vector Size = 2048 points 
 Apodization = 15.0 Hz Lorentzian broadening
 B0 Field    = 127.74 MHz 
 Ref Singlet = False
  
 This data has been FFTd to be in the FREQUENCY domain
 
 $NMID ID='phosphorylcholine-notrimethyl'
 FMTDAT='(2E16.6)'
 VOLUME=1.0
 TRAMP=1.0
 $END
    4.939620E+00    2.568285E+01
    5.141279E+00    2.636116E+01
    5.363842E+00    2.707912E+01
    5.610353E+00    2.784036E+01
    5.884447E+00    2.864893E+01
    6.190480E+00    2.950936E+01
    6.533714E+00    3.042669E+01
    6.920544E+00    3.140651E+01
    7.358738E+00    3.245490E+01
    7.857675E+00    3.357845E+01
    8.428546E+00    3.478428E+01
    9.084763E+00    3.608038E+01
    9.842887E+00    3.747594E+01
    1.072401E+01    3.898126E+01
    1.175534E+01    4.060736E+01
    1.297237E+01    4.236524E+01
    1.442172E+01    4.426419E+01
    1.616448E+01    4.630857E+01
    1.827997E+01    4.849254E+01
    2.086960E+01    5.079097E+01
    2.405810E+01    5.314400E+01
    2.798670E+01    5.543420E+01
    3.278741E+01    5.745914E+01
    3.852704E+01    5.891817E+01
    4.513532E+01    5.945129E+01
    5.238630E+01    5.873672E+01
    5.996673E+01    5.654978E+01
    6.751195E+01    5.273821E+01
    7.458566E+01    4.724797E+01
    8.074266E+01    4.017291E+01
    8.557764E+01    3.169551E+01
    8.865743E+01    2.210477E+01
    8.961810E+01    1.192723E+01
    8.837302E+01    1.818414E+00
    8.505991E+01   -7.646968E+00
    7.992942E+01   -1.595760E+01
    7.340838E+01   -2.267185E+01
    6.605251E+01   -2.755803E+01
    5.839802E+01   -3.058350E+01
    5.094912E+01   -3.184760E+01
    4.415837E+01   -3.162222E+01
    3.830232E+01   -3.032798E+01
    3.343393E+01   -2.838895E+01
    2.945963E+01   -2.612468E+01
    2.623404E+01   -2.373488E+01
    2.361590E+01   -2.132972E+01
    2.148789E+01   -1.896473E+01
    1.975812E+01   -1.666469E+01
    1.835702E+01   -1.443765E+01
    1.723274E+01   -1.228443E+01
    1.634478E+01   -1.020342E+01
    1.565990E+01   -8.190604E+00
    1.515096E+01   -6.239841E+00
    1.479513E+01   -4.343647E+00
    1.457232E+01   -2.491640E+00
    1.446675E+01   -6.689350E-01
    1.446912E+01    1.142758E+00
    1.457681E+01    2.963428E+00
    1.479393E+01    4.814376E+00
    1.513280E+01    6.718307E+00
    1.561765E+01    8.697265E+00
    1.628713E+01    1.076503E+01
    1.718677E+01    1.291609E+01
    1.834949E+01    1.512837E+01
    1.979035E+01    1.738867E+01
    2.153233E+01    1.970840E+01
    2.363148E+01    2.210832E+01
    2.618124E+01    2.459601E+01
    2.931009E+01    2.715070E+01
    3.318257E+01    2.970753E+01
    3.800025E+01    3.213020E+01
    4.399057E+01    3.416403E+01
    5.135825E+01    3.536670E+01
    6.015272E+01    3.503859E+01
    7.000309E+01    3.225103E+01
    7.980642E+01    2.619220E+01
    8.784704E+01    1.692370E+01
    9.284654E+01    5.782088E+00
    9.491836E+01   -5.644694E+00
    9.484122E+01   -1.674718E+01
    9.294288E+01   -2.754517E+01
    8.914238E+01   -3.795779E+01
    8.319223E+01   -4.763133E+01
    7.499370E+01   -5.569153E+01
    6.527400E+01   -6.108630E+01
    5.540123E+01   -6.352156E+01
    4.647877E+01   -6.357881E+01
    3.896400E+01   -6.211913E+01
    3.285520E+01   -5.985296E+01
    2.795735E+01   -5.724424E+01
    2.403735E+01   -5.456106E+01
    2.088593E+01   -5.194595E+01
    1.833339E+01   -4.946830E+01
    1.624759E+01   -4.715704E+01
    1.452675E+01   -4.501950E+01
    1.309192E+01   -4.305134E+01
    1.188153E+01   -4.124109E+01
    1.084901E+01   -3.957268E+01
    9.961419E+00   -3.802948E+01
    9.195288E+00   -3.659819E+01
    8.531822E+00   -3.526888E+01
    7.954765E+00   -3.403314E+01
    7.450211E+00   -3.288299E+01
    7.006600E+00   -3.181080E+01
    6.614469E+00   -3.080943E+01
    6.266095E+00   -2.987240E+01
    5.955150E+00   -2.899384E+01
    5.676416E+00   -2.816850E+01
    5.425557E+00   -2.739171E+01
    5.198949E+00   -2.665929E+01
    4.993540E+00   -2.596752E+01
    4.806743E+00   -2.531305E+01
    4.636356E+00   -2.469291E+01
    4.480497E+00   -2.410441E+01
    4.337545E+00   -2.354514E+01
    4.206097E+00   -2.301293E+01
    4.084939E+00   -2.250580E+01
    3.973012E+00   -2.202198E+01
    3.869392E+00   -2.155985E+01
    3.773265E+00   -2.111795E+01
    3.683917E+00   -2.069492E+01
    3.600715E+00   -2.028956E+01
    3.523101E+00   -1.990074E+01
    3.450577E+00   -1.952742E+01
    3.382702E+00   -1.916868E+01
    3.319080E+00   -1.882364E+01
    3.259360E+00   -1.849151E+01
    3.203224E+00   -1.817155E+01
    3.150386E+00   -1.786307E+01
    3.100587E+00   -1.756545E+01
    3.053596E+00   -1.727811E+01
    3.009200E+00   -1.700050E+01
    2.967208E+00   -1.673211E+01
    2.927447E+00   -1.647248E+01
    2.889757E+00   -1.622118E+01
    2.853994E+00   -1.597778E+01
    2.820025E+00   -1.574190E+01
    2.787731E+00   -1.551320E+01
    2.757000E+00   -1.529133E+01
    2.727731E+00   -1.507599E+01
    2.699830E+00   -1.486686E+01
    2.673213E+00   -1.466369E+01
    2.647802E+00   -1.446621E+01
    2.623522E+00   -1.427417E+01
    2.600306E+00   -1.408734E+01
    2.578093E+00   -1.390551E+01
    2.556826E+00   -1.372847E+01
    2.536449E+00   -1.355602E+01
    2.516911E+00   -1.338799E+01
    2.498166E+00   -1.322420E+01
    2.480173E+00   -1.306449E+01
    2.462892E+00   -1.290869E+01
    2.446282E+00   -1.275667E+01
    2.430306E+00   -1.260828E+01
    2.414935E+00   -1.246339E+01
    2.400138E+00   -1.232187E+01
    2.385881E+00   -1.218360E+01
    2.372138E+00   -1.204846E+01
    2.358889E+00   -1.191634E+01
    2.346110E+00   -1.178715E+01
    2.333772E+00   -1.166078E+01
    2.321859E+00   -1.153714E+01
    2.310354E+00   -1.141613E+01
    2.299235E+00   -1.129766E+01
    2.288485E+00   -1.118167E+01
    2.278089E+00   -1.106806E+01
    2.268030E+00   -1.095676E+01
    2.258294E+00   -1.084771E+01
