 Vespa-Simulation Mixed Metabolite Output
 This file was generated by Vespa-Simulation. You can learn about and download Vespa here:
https://github.com/vespa-mrs/vespa/tree/main/vespa

 
 Output Path/Filename = /home/stud/casperc/bhome/Project1(DeepFit)/DeepFit-data-generation/Initial_spectra_linewidth_10_TE30_1024p
 Output Loop Values = (1,1,1)  ( Loop 1 = 11, Loop 2 = 11, Loop3 Inactive )
 Output Comment
 ---------------------------------------------------------------------------
 
 
 Experiment Information
 ---------------------------------------------------------------------------
 --- Experiment 982623a4-1070-4538-bb82-a4cf0a440db0 ---
 Name: SyntheticDataSetDeepFitTE22
 Public: False
 Created: 2024-10-04T10:31:50
 Comment (abbr.): 
 PI: Casper Cappelen
 b0: 127.740000
 Peak Search PPM low/high: -10.000000 / 10.000000
 Blend tol. PPM/phase: 0.000150 / 50.000000
 Pulse seq.: 43be13ae-de9a-40a1-9a2d-c872d8bjs100 (PRESS Ideal)
 0 User static parameters: 
 28 Metabolites: 2-hydroxyglutarate, alanine, choline-methylene, choline-trimethyl, choline-truncated, creatine, ethanolamine, gaba, glucose-alpha, glucose-beta, glutamate, glutamine, glutathione-glutamate, glutathione-glycine-cysteine, glycine, GPC-gp, GPC-pcholine1, GPC-pcholine2, lactate, myo-inositol, n-acetylaspartate, NAAG-truncated, phosphocreatine, phosphorylcholine-notrimethyl, phosphorylcholine-trimethyl, phosphorylethanolamine, pyruvate, taurine
 28 Simulations: (not shown)
 
 Metabolite Formatting Information
 ---------------------------------------------------------------------------
 Name=2-hydroxyglutarate Abbr=2HG Scale=1.0 Shift=0.0 PPM Start=-7.81 PPM End=7.81
 Name=alanine Abbr=Ala Scale=1.0 Shift=0.0 PPM Start=-7.81 PPM End=7.81
 Name=choline-methylene Abbr=choline-methylene Scale=1.0 Shift=0.0 PPM Start=-7.81 PPM End=7.81
 Name=choline-trimethyl Abbr=choline-trimethyl Scale=1.0 Shift=0.0 PPM Start=-7.81 PPM End=7.81
 Name=choline-truncated Abbr=choline-truncated Scale=1.0 Shift=0.0 PPM Start=-7.81 PPM End=7.81
 Name=creatine Abbr=Cr Scale=1.0 Shift=0.0 PPM Start=-7.81 PPM End=7.81
 Name=ethanolamine Abbr=ETA Scale=1.0 Shift=0.0 PPM Start=-7.81 PPM End=7.81
 Name=gaba Abbr=GABA Scale=1.0 Shift=0.0 PPM Start=-7.81 PPM End=7.81
 Name=glutamate Abbr=Glu Scale=1.0 Shift=0.0 PPM Start=-7.81 PPM End=7.81
 Name=glutamine Abbr=Gln Scale=1.0 Shift=0.0 PPM Start=-7.81 PPM End=7.81
 Name=glutathione-glutamate Abbr=glutathione-glutamate Scale=1.0 Shift=0.0 PPM Start=-7.81 PPM End=7.81
 Name=glutathione-glycine-cysteine Abbr=GSH Scale=1.0 Shift=0.0 PPM Start=-7.81 PPM End=7.81
 Name=glycine Abbr=Gly Scale=1.0 Shift=0.0 PPM Start=-7.81 PPM End=7.81
 Name=GPC-gp Abbr=GPC-gp Scale=1.0 Shift=0.0 PPM Start=-7.81 PPM End=7.81
 Name=GPC-pcholine1 Abbr=GPC-pcholine1 Scale=1.0 Shift=0.0 PPM Start=-7.81 PPM End=7.81
 Name=GPC-pcholine2 Abbr=GPC-pcholine2 Scale=1.0 Shift=0.0 PPM Start=-7.81 PPM End=7.81
 Name=lactate Abbr=Lac Scale=1.0 Shift=0.0 PPM Start=-7.81 PPM End=7.81
 Name=myo-inositol Abbr=mI Scale=1.0 Shift=0.0 PPM Start=-7.81 PPM End=7.81
 Name=n-acetylaspartate Abbr=NAA Scale=1.0 Shift=0.0 PPM Start=-7.18 PPM End=7.81
 Name=NAAG-truncated Abbr=NAAG Scale=1.0 Shift=0.0 PPM Start=-7.81 PPM End=7.81
 Name=phosphocreatine Abbr=PCr Scale=1.0 Shift=0.0 PPM Start=-7.81 PPM End=7.81
 Name=phosphorylcholine-notrimethyl Abbr=phosphorylcholine-notrimethyl Scale=1.0 Shift=0.0 PPM Start=-7.81 PPM End=7.81
 Name=phosphorylcholine-trimethyl Abbr=phosphorylcholine-trimethyl Scale=1.0 Shift=0.0 PPM Start=-7.81 PPM End=7.81
 Name=phosphorylethanolamine Abbr=PE Scale=1.0 Shift=0.0 PPM Start=-7.81 PPM End=7.81
 Name=pyruvate Abbr=Pyr Scale=1.0 Shift=0.0 PPM Start=-7.51 PPM End=7.81
 Name=taurine Abbr=Tau Scale=1.0 Shift=0.0 PPM Start=7.81 PPM End=7.81
 Name=glucose-beta+glucose-alpha Abbr=Glc Scale=1.0 Shift=0.0 PPM Start=-7.81 PPM End=7.81
   Mixture of [metab*scale] = glucose-beta*1.000000 + glucose-alpha*1.000000
 
 ===========================================================================
 This LCModel format RAW file was created using the 
 Vespa-Simulation spectral simulation program using 
 the following settings and parameters 
 
 Sweep Width = 3500.0 Hz 
 Vector Size = 2048 points 
 Apodization = 15.0 Hz Lorentzian broadening
 B0 Field    = 127.74 MHz 
 Ref Singlet = False
  
 $NMID ID='Pyr'
 FMTDAT='(2E16.6)'
 VOLUME=1.0
 TRAMP=1.0
 $END
    3.000000E+00   -2.428613E-17
    2.543519E+00    1.513735E+00
    1.392698E+00    2.566810E+00
   -1.143726E-01    2.878968E+00
   -1.549635E+00    2.383193E+00
   -2.516350E+00    1.238653E+00
   -2.758459E+00   -2.195167E-01
   -2.227965E+00   -1.577977E+00
   -1.092747E+00   -2.462053E+00
    3.158285E-01   -2.638802E+00
    1.599251E+00   -2.077923E+00
    2.404385E+00   -9.547939E-01
    2.520302E+00    4.036851E-01
    1.933119E+00    1.613953E+00
    8.246049E-01    2.343785E+00
   -4.834797E-01    2.403233E+00
   -1.622536E+00    1.793601E+00
   -2.280663E+00    7.019856E-01
   -2.287843E+00   -5.556058E-01
   -1.659384E+00   -1.625453E+00
   -5.867195E-01   -2.215414E+00
    6.204094E-01   -2.174361E+00
    1.623145E+00   -1.530461E+00
    2.148403E+00   -4.785913E-01
    2.062987E+00    6.782721E-01
    1.406838E+00    1.616007E+00
    3.773675E-01    2.079975E+00
   -7.295548E-01    1.953900E+00
   -1.604451E+00    1.288464E+00
   -2.010447E+00    2.828486E-01
   -1.847259E+00   -7.746097E-01
   -1.175316E+00   -1.588841E+00
   -1.947936E-01   -1.940121E+00
    8.137816E-01   -1.743204E+00
    1.569547E+00   -1.067329E+00
    1.869275E+00   -1.129721E-01
    1.641842E+00    8.474257E-01
    9.644328E-01    1.546915E+00
    3.715249E-02    1.798168E+00
   -8.758287E-01    1.543297E+00
   -1.521273E+00    8.665512E-01
   -1.727038E+00   -3.291819E-02
   -1.447646E+00   -8.993292E-01
   -7.735959E-01   -1.492934E+00
    9.742961E-02   -1.656108E+00
    9.182349E-01   -1.354957E+00
    1.462195E+00   -6.854713E-01
    1.585580E+00    1.566343E-01
    1.265287E+00    9.328444E-01
    6.020565E-01    1.429343E+00
   -2.107617E-01    1.515640E+00
   -9.434461E-01    1.178678E+00
   -1.394630E+00    5.232767E-01
   -1.446458E+00   -2.600391E-01
   -1.095159E+00   -9.503181E-01
   -4.489985E-01   -1.358314E+00
    3.047076E-01   -1.378185E+00
    9.537290E-01   -1.014747E+00
    1.320631E+00   -3.791014E-01
    1.310967E+00    3.449547E-01
    9.374491E-01    9.539368E-01
    3.134609E-01    1.281804E+00
   -3.810155E-01    1.244927E+00
   -9.511893E-01    8.632620E-01
   -1.242041E+00    2.519487E-01
   -1.180177E+00   -4.131040E-01
   -7.921727E-01   -9.457246E-01
   -1.944341E-01   -1.201537E+00
    4.414292E-01   -1.116815E+00
    9.377874E-01   -7.241371E-01
    1.160475E+00   -1.407840E-01
    1.054930E+00    4.661963E-01
    6.591715E-01    9.275593E-01
    9.086367E-02    1.119024E+00
   -4.876049E-01    9.945969E-01
   -9.152674E-01    5.972168E-01
   -1.077342E+00    4.453760E-02
   -9.358821E-01   -5.058498E-01
   -5.382302E-01   -9.011094E-01
   -1.669528E-03   -1.035576E+00
    5.211203E-01   -8.788407E-01
    8.852740E-01   -4.821631E-01
    9.938591E-01    3.790066E-02
    8.235181E-01    5.336001E-01
    4.289617E-01    8.679399E-01
   -7.426025E-02    9.523181E-01
   -5.434673E-01    7.699518E-01
   -8.492770E-01    3.785674E-01
   -9.110668E-01   -1.075693E-01
   -7.181705E-01   -5.508944E-01
   -3.309177E-01   -8.294458E-01
    1.379619E-01   -8.702099E-01
    5.560478E-01   -6.681951E-01
    8.085982E-01   -2.859464E-01
    8.298427E-01    1.655708E-01
    6.200394E-01    5.590880E-01
    2.435842E-01    7.868773E-01
   -1.905269E-01    7.900515E-01
   -5.601836E-01    5.736971E-01
   -7.644176E-01    2.037591E-01
   -7.509145E-01   -2.129593E-01
   -5.291961E-01   -5.594544E-01
   -1.663970E-01   -7.413459E-01
    2.329945E-01   -7.125010E-01
    5.570583E-01   -4.865183E-01
    7.177805E-01   -1.314217E-01
    6.748735E-01    2.507571E-01
    4.456536E-01    5.531317E-01
    9.875588E-02    6.938326E-01
   -2.663686E-01    6.380869E-01
   -5.478057E-01    4.065873E-01
   -6.696071E-01    6.830481E-02
   -6.021825E-01   -2.799623E-01
   -3.693131E-01   -5.411966E-01
   -4.003734E-02   -6.451956E-01
    2.916108E-01   -5.672221E-01
    5.334497E-01   -3.337688E-01
    6.206925E-01   -1.381055E-02
    5.332139E-01    3.014829E-01
    2.999541E-01    5.246597E-01
   -1.039483E-02    5.961781E-01
   -3.096355E-01    5.002161E-01
   -5.149215E-01    2.678637E-01
   -5.717287E-01   -3.271712E-02
   -4.682235E-01   -3.162244E-01
   -2.374147E-01   -5.043649E-01
    5.317994E-02   -5.474170E-01
    3.213062E-01   -4.372859E-01
    4.930627E-01   -2.086205E-01
    5.233030E-01    7.191604E-02
    4.073872E-01    3.250237E-01
    1.813955E-01    4.811282E-01
   -8.895245E-02    4.994514E-01
   -3.274326E-01    3.785687E-01
   -4.686291E-01    1.557466E-01
   -4.759079E-01   -1.044156E-01
   -3.508052E-01   -3.286632E-01
   -1.315868E-01   -4.556634E-01
    1.183569E-01   -4.527245E-01
    3.287695E-01   -3.241307E-01
    4.422940E-01   -1.089175E-01
    4.299508E-01    1.308307E-01
    2.985125E-01    3.278696E-01
    8.765159E-02    4.286044E-01
   -1.419531E-01    4.076138E-01
   -3.260156E-01    2.739779E-01
   -4.146528E-01    6.778575E-02
   -3.857611E-01   -1.517563E-01
   -2.504881E-01   -3.233136E-01
   -4.923369E-02   -4.005093E-01
    1.603488E-01   -3.644087E-01
    3.198246E-01   -2.280492E-01
    3.862274E-01   -3.198815E-02
    3.435982E-01    1.677638E-01
    2.066638E-01    3.156106E-01
    1.596465E-02    3.718653E-01
   -1.741022E-01    3.233362E-01
   -3.107606E-01    1.862867E-01
   -3.574714E-01    1.152615E-03
   -3.036587E-01   -1.793974E-01
   -1.669315E-01   -3.053211E-01
    1.252991E-02   -3.430932E-01
    1.837429E-01   -2.845643E-01
    2.993706E-01   -1.485499E-01
    3.287732E-01    2.511194E-02
    2.660836E-01    1.871720E-01
    1.311510E-01    2.929529E-01
   -3.662503E-02    3.145528E-01
   -1.897705E-01    2.482086E-01
   -2.861366E-01    1.146848E-01
