 Vespa-Simulation Mixed Metabolite Output
 This file was generated by Vespa-Simulation. You can learn about and download Vespa here:
https://github.com/vespa-mrs/vespa/tree/main/vespa

 
 Output Path/Filename = /home/stud/casperc/bhome/Project1(DeepFit)/DeepFit-data-generation/Initial_spectra_linewidth_10_TE30_1024p
 Output Loop Values = (1,1,1)  ( Loop 1 = 11, Loop 2 = 11, Loop3 Inactive )
 Output Comment
 ---------------------------------------------------------------------------
 
 
 Experiment Information
 ---------------------------------------------------------------------------
 --- Experiment 982623a4-1070-4538-bb82-a4cf0a440db0 ---
 Name: SyntheticDataSetDeepFitTE22
 Public: False
 Created: 2024-10-04T10:31:50
 Comment (abbr.): 
 PI: Casper Cappelen
 b0: 127.740000
 Peak Search PPM low/high: -10.000000 / 10.000000
 Blend tol. PPM/phase: 0.000150 / 50.000000
 Pulse seq.: 43be13ae-de9a-40a1-9a2d-c872d8bjs100 (PRESS Ideal)
 0 User static parameters: 
 28 Metabolites: 2-hydroxyglutarate, alanine, choline-methylene, choline-trimethyl, choline-truncated, creatine, ethanolamine, gaba, glucose-alpha, glucose-beta, glutamate, glutamine, glutathione-glutamate, glutathione-glycine-cysteine, glycine, GPC-gp, GPC-pcholine1, GPC-pcholine2, lactate, myo-inositol, n-acetylaspartate, NAAG-truncated, phosphocreatine, phosphorylcholine-notrimethyl, phosphorylcholine-trimethyl, phosphorylethanolamine, pyruvate, taurine
 28 Simulations: (not shown)
 
 Metabolite Formatting Information
 ---------------------------------------------------------------------------
 Name=2-hydroxyglutarate Abbr=2HG Scale=1.0 Shift=0.0 PPM Start=-7.81 PPM End=7.81
 Name=alanine Abbr=Ala Scale=1.0 Shift=0.0 PPM Start=-7.81 PPM End=7.81
 Name=choline-methylene Abbr=choline-methylene Scale=1.0 Shift=0.0 PPM Start=-7.81 PPM End=7.81
 Name=choline-trimethyl Abbr=choline-trimethyl Scale=1.0 Shift=0.0 PPM Start=-7.81 PPM End=7.81
 Name=choline-truncated Abbr=choline-truncated Scale=1.0 Shift=0.0 PPM Start=-7.81 PPM End=7.81
 Name=creatine Abbr=Cr Scale=1.0 Shift=0.0 PPM Start=-7.81 PPM End=7.81
 Name=ethanolamine Abbr=ETA Scale=1.0 Shift=0.0 PPM Start=-7.81 PPM End=7.81
 Name=gaba Abbr=GABA Scale=1.0 Shift=0.0 PPM Start=-7.81 PPM End=7.81
 Name=glutamate Abbr=Glu Scale=1.0 Shift=0.0 PPM Start=-7.81 PPM End=7.81
 Name=glutamine Abbr=Gln Scale=1.0 Shift=0.0 PPM Start=-7.81 PPM End=7.81
 Name=glutathione-glutamate Abbr=glutathione-glutamate Scale=1.0 Shift=0.0 PPM Start=-7.81 PPM End=7.81
 Name=glutathione-glycine-cysteine Abbr=GSH Scale=1.0 Shift=0.0 PPM Start=-7.81 PPM End=7.81
 Name=glycine Abbr=Gly Scale=1.0 Shift=0.0 PPM Start=-7.81 PPM End=7.81
 Name=GPC-gp Abbr=GPC-gp Scale=1.0 Shift=0.0 PPM Start=-7.81 PPM End=7.81
 Name=GPC-pcholine1 Abbr=GPC-pcholine1 Scale=1.0 Shift=0.0 PPM Start=-7.81 PPM End=7.81
 Name=GPC-pcholine2 Abbr=GPC-pcholine2 Scale=1.0 Shift=0.0 PPM Start=-7.81 PPM End=7.81
 Name=lactate Abbr=Lac Scale=1.0 Shift=0.0 PPM Start=-7.81 PPM End=7.81
 Name=myo-inositol Abbr=mI Scale=1.0 Shift=0.0 PPM Start=-7.81 PPM End=7.81
 Name=n-acetylaspartate Abbr=NAA Scale=1.0 Shift=0.0 PPM Start=-7.18 PPM End=7.81
 Name=NAAG-truncated Abbr=NAAG Scale=1.0 Shift=0.0 PPM Start=-7.81 PPM End=7.81
 Name=phosphocreatine Abbr=PCr Scale=1.0 Shift=0.0 PPM Start=-7.81 PPM End=7.81
 Name=phosphorylcholine-notrimethyl Abbr=phosphorylcholine-notrimethyl Scale=1.0 Shift=0.0 PPM Start=-7.81 PPM End=7.81
 Name=phosphorylcholine-trimethyl Abbr=phosphorylcholine-trimethyl Scale=1.0 Shift=0.0 PPM Start=-7.81 PPM End=7.81
 Name=phosphorylethanolamine Abbr=PE Scale=1.0 Shift=0.0 PPM Start=-7.81 PPM End=7.81
 Name=pyruvate Abbr=Pyr Scale=1.0 Shift=0.0 PPM Start=-7.51 PPM End=7.81
 Name=taurine Abbr=Tau Scale=1.0 Shift=0.0 PPM Start=7.81 PPM End=7.81
 Name=glucose-beta+glucose-alpha Abbr=Glc Scale=1.0 Shift=0.0 PPM Start=-7.81 PPM End=7.81
   Mixture of [metab*scale] = glucose-beta*1.000000 + glucose-alpha*1.000000
 
 ===========================================================================
 This LCModel format RAW file was created using the 
 Vespa-Simulation spectral simulation program using 
 the following settings and parameters 
 
 Sweep Width = 3500.0 Hz 
 Vector Size = 2048 points 
 Apodization = 15.0 Hz Lorentzian broadening
 B0 Field    = 127.74 MHz 
 Ref Singlet = False
  
 This data has been FFTd to be in the FREQUENCY domain
 
 $NMID ID='Pyr'
 FMTDAT='(2E16.6)'
 VOLUME=1.0
 TRAMP=1.0
 $END
    1.643421E+00    5.450006E+00
    1.645073E+00    5.482867E+00
    1.646764E+00    5.516067E+00
    1.648466E+00    5.549612E+00
    1.650164E+00    5.583530E+00
    1.651861E+00    5.617853E+00
    1.653577E+00    5.652600E+00
    1.655327E+00    5.687778E+00
    1.657125E+00    5.723395E+00
    1.658997E+00    5.759451E+00
    1.660963E+00    5.795917E+00
    1.663001E+00    5.832743E+00
    1.665036E+00    5.869919E+00
    1.666998E+00    5.907516E+00
    1.668904E+00    5.945643E+00
    1.670848E+00    5.984352E+00
    1.672912E+00    6.023606E+00
    1.675117E+00    6.063336E+00
    1.677427E+00    6.103475E+00
    1.679750E+00    6.144013E+00
    1.682014E+00    6.185028E+00
    1.684240E+00    6.226625E+00
    1.686511E+00    6.268845E+00
    1.688886E+00    6.311655E+00
    1.691362E+00    6.355013E+00
    1.693915E+00    6.398912E+00
    1.696530E+00    6.443366E+00
    1.699205E+00    6.488381E+00
    1.701924E+00    6.533967E+00
    1.704668E+00    6.580148E+00
    1.707438E+00    6.626965E+00
    1.710257E+00    6.674445E+00
    1.713150E+00    6.722593E+00
    1.716118E+00    6.771403E+00
    1.719149E+00    6.820882E+00
    1.722238E+00    6.871056E+00
    1.725395E+00    6.921945E+00
    1.728630E+00    6.973557E+00
    1.731940E+00    7.025899E+00
    1.735313E+00    7.078987E+00
    1.738752E+00    7.132851E+00
    1.742266E+00    7.187512E+00
    1.745861E+00    7.242980E+00
    1.749534E+00    7.299274E+00
    1.753287E+00    7.356416E+00
    1.757128E+00    7.414429E+00
    1.761064E+00    7.473326E+00
    1.765088E+00    7.533122E+00
    1.769197E+00    7.593848E+00
    1.773398E+00    7.655538E+00
    1.777711E+00    7.718217E+00
    1.782147E+00    7.781894E+00
    1.786705E+00    7.846582E+00
    1.791379E+00    7.912306E+00
    1.796174E+00    7.979095E+00
    1.801095E+00    8.046971E+00
    1.806138E+00    8.115954E+00
    1.811298E+00    8.186078E+00
    1.816573E+00    8.257383E+00
    1.821976E+00    8.329911E+00
    1.827522E+00    8.403692E+00
    1.833221E+00    8.478752E+00
    1.839075E+00    8.555122E+00
    1.845091E+00    8.632834E+00
    1.851274E+00    8.711922E+00
    1.857624E+00    8.792418E+00
    1.864139E+00    8.874364E+00
    1.870822E+00    8.957812E+00
    1.877687E+00    9.042814E+00
    1.884757E+00    9.129411E+00
    1.892044E+00    9.217637E+00
    1.899550E+00    9.307530E+00
    1.907278E+00    9.399139E+00
    1.915236E+00    9.492517E+00
    1.923437E+00    9.587712E+00
    1.931882E+00    9.684773E+00
    1.940571E+00    9.783759E+00
    1.949512E+00    9.884745E+00
    1.958730E+00    9.987798E+00
    1.968246E+00    1.009297E+01
    1.978067E+00    1.020033E+01
    1.988195E+00    1.030993E+01
    1.998648E+00    1.042186E+01
    2.009448E+00    1.053620E+01
    2.020607E+00    1.065302E+01
    2.032130E+00    1.077238E+01
    2.044032E+00    1.089441E+01
    2.056352E+00    1.101920E+01
    2.069123E+00    1.114681E+01
    2.082350E+00    1.127733E+01
    2.096028E+00    1.141086E+01
    2.110183E+00    1.154754E+01
    2.124866E+00    1.168748E+01
    2.140100E+00    1.183076E+01
    2.155868E+00    1.197752E+01
    2.172204E+00    1.212792E+01
    2.189190E+00    1.228210E+01
    2.206856E+00    1.244016E+01
    2.225190E+00    1.260225E+01
    2.244237E+00    1.276856E+01
    2.264071E+00    1.293926E+01
    2.284724E+00    1.311448E+01
    2.306211E+00    1.329441E+01
    2.328576E+00    1.347928E+01
    2.351893E+00    1.366929E+01
    2.376225E+00    1.386464E+01
    2.401619E+00    1.406556E+01
    2.428127E+00    1.427230E+01
    2.455819E+00    1.448511E+01
    2.484777E+00    1.470426E+01
    2.515079E+00    1.493005E+01
    2.546799E+00    1.516276E+01
    2.580026E+00    1.540274E+01
    2.614863E+00    1.565033E+01
    2.651419E+00    1.590589E+01
    2.689807E+00    1.616982E+01
    2.730144E+00    1.644252E+01
    2.772567E+00    1.672445E+01
    2.817233E+00    1.701609E+01
    2.864306E+00    1.731793E+01
    2.913953E+00    1.763051E+01
    2.966359E+00    1.795441E+01
    3.021735E+00    1.829027E+01
    3.080315E+00    1.863875E+01
    3.142346E+00    1.900057E+01
    3.208093E+00    1.937650E+01
    3.277855E+00    1.976738E+01
    3.351972E+00    2.017413E+01
    3.430817E+00    2.059773E+01
    3.514802E+00    2.103922E+01
    3.604377E+00    2.149977E+01
    3.700048E+00    2.198062E+01
    3.802384E+00    2.248313E+01
    3.912013E+00    2.300877E+01
    4.029642E+00    2.355919E+01
    4.156068E+00    2.413613E+01
    4.292194E+00    2.474156E+01
    4.439034E+00    2.537758E+01
    4.597731E+00    2.604654E+01
    4.769578E+00    2.675103E+01
    4.956060E+00    2.749392E+01
    5.158880E+00    2.827837E+01
    5.379993E+00    2.910791E+01
    5.621655E+00    2.998647E+01
    5.886477E+00    3.091842E+01
    6.177499E+00    3.190866E+01
    6.498272E+00    3.296269E+01
    6.852959E+00    3.408669E+01
    7.246459E+00    3.528762E+01
    7.684582E+00    3.657340E+01
    8.174256E+00    3.795299E+01
    8.723797E+00    3.943662E+01
    9.343253E+00    4.103596E+01
    1.004484E+01    4.276436E+01
    1.084352E+01    4.463716E+01
    1.175774E+01    4.667196E+01
    1.281045E+01    4.888906E+01
    1.403045E+01    5.131184E+01
    1.545425E+01    5.396720E+01
    1.712857E+01    5.688599E+01
    1.911385E+01    6.010326E+01
    2.148914E+01    6.365824E+01
    2.435902E+01    6.759363E+01
    2.786343E+01    7.195342E+01
    3.219182E+01    7.677783E+01
    3.760321E+01    8.209265E+01
    4.445423E+01    8.788739E+01
    5.323657E+01    9.407209E+01
