 Vespa-Simulation Mixed Metabolite Output
 This file was generated by Vespa-Simulation. You can learn about and download Vespa here:
https://github.com/vespa-mrs/vespa/tree/main/vespa

 
 Output Path/Filename = /home/stud/casperc/bhome/Project1(DeepFit)/DeepFit-data-generation/Initial_spectra_linewidth_10_TE30_1024p
 Output Loop Values = (1,1,1)  ( Loop 1 = 15, Loop 2 = 15, Loop3 Inactive )
 Output Comment
 ---------------------------------------------------------------------------
 
 
 Experiment Information
 ---------------------------------------------------------------------------
 --- Experiment 32780d98-dc11-42ab-ab27-92876fb0934a ---
 Name: PRESS_3T_30TE
 Public: False
 Created: 2023-12-19T15:15:29
 Comment (abbr.): LC-Model basis set clone +2-HG
 PI: Casper Cappelen
 b0: 127.740000
 Peak Search PPM low/high: 0.000000 / 10.000000
 Blend tol. PPM/phase: 0.001500 / 50.000000
 Pulse seq.: 43be13ae-de9a-40a1-9a2d-c872d8bjs100 (PRESS Ideal)
 0 User static parameters: 
 19 Metabolites: 2-hydroxyglutarate, GPC-gp, NAAG-truncated, alanine, aspartate, creatine, gaba, glucose-alpha, glucose-beta, glutamate, glutamine, glutathione-glutamate, lactate, myo-inositol, n-acetylaspartate, phosphocreatine, phosphorylcholine-notrimethyl, scyllo-inositol, taurine
 19 Simulations: (not shown)
 
 Metabolite Formatting Information
 ---------------------------------------------------------------------------
 Name=GPC-gp Abbr=GPC Scale=1.0 Shift=0.0 PPM Start=0.0 PPM End=4.5
 Name=NAAG-truncated Abbr=NAAG Scale=1.0 Shift=0.0 PPM Start=0.0 PPM End=4.5
 Name=alanine Abbr=Ala Scale=1.0 Shift=0.0 PPM Start=0.0 PPM End=4.5
 Name=aspartate Abbr=Asp Scale=1.0 Shift=0.0 PPM Start=0.0 PPM End=4.5
 Name=creatine Abbr=Cr Scale=1.0 Shift=0.1 PPM Start=0.0 PPM End=4.5
 Name=gaba Abbr=GABA Scale=1.0 Shift=0.0 PPM Start=0.0 PPM End=4.5
 Name=glutamate Abbr=Glu Scale=1.0 Shift=0.0 PPM Start=0.0 PPM End=4.5
 Name=glutamine Abbr=Gln Scale=1.0 Shift=0.0 PPM Start=0.0 PPM End=4.5
 Name=glutathione-glutamate Abbr=GSH Scale=1.0 Shift=0.0 PPM Start=0.0 PPM End=4.5
 Name=lactate Abbr=Lac Scale=1.0 Shift=0.0 PPM Start=0.0 PPM End=4.5
 Name=myo-inositol Abbr=mI Scale=1.0 Shift=0.0 PPM Start=0.0 PPM End=4.5
 Name=n-acetylaspartate Abbr=NAA Scale=1.0 Shift=0.0 PPM Start=0.0 PPM End=4.5
 Name=phosphocreatine Abbr=PCr Scale=1.0 Shift=0.0 PPM Start=0.0 PPM End=4.5
 Name=phosphorylcholine-notrimethyl Abbr=PCho Scale=1.0 Shift=0.0 PPM Start=0.0 PPM End=4.5
 Name=taurine Abbr=Tau Scale=1.0 Shift=0.0 PPM Start=0.0 PPM End=4.5
 Name=glucose-alpha+glucose-beta Abbr=Glc Scale=1.0 Shift=0.0 PPM Start=0.0 PPM End=4.5
   Mixture of [metab*scale] = glucose-alpha*1.000000 + glucose-beta*1.000000
 
 ===========================================================================
 This LCModel format RAW file was created using the 
 Vespa-Simulation spectral simulation program using 
 the following settings and parameters 
 
 Sweep Width = 574.83 Hz 
 Vector Size = 1024 points 
 Apodization = 10.0 Hz Gaussian broadening
 B0 Field    = 127.74 MHz 
 Ref Singlet = False
  
 $NMID ID='Tau'
 FMTDAT='(2E16.6)'
 VOLUME=1.0
 TRAMP=1.0
 $END
    3.872408E+00    4.822973E-07
   -1.280590E+00    3.648623E+00
   -2.957551E+00   -2.367751E+00
    3.088698E+00   -1.928531E+00
    7.508224E-01    3.348003E+00
   -3.144641E+00   -3.694078E-01
    1.254014E+00   -2.566552E+00
    1.765147E+00    1.788720E+00
   -1.941815E+00    9.170619E-01
   -1.833462E-01   -1.762220E+00
    1.359181E+00    3.238028E-01
   -5.594843E-01    8.701426E-01
   -4.257896E-01   -5.465665E-01
    3.602142E-01   -1.210808E-01
   -1.358802E-03    1.020051E-01
    1.286774E-01    4.708313E-02
   -2.126695E-01    2.585505E-01
   -2.543562E-01   -4.196494E-01
    5.929226E-01   -1.247373E-01
   -8.864344E-02    6.770189E-01
   -6.471359E-01   -3.268816E-01
    5.313931E-01   -5.106617E-01
    3.003700E-01    6.584796E-01
   -6.877372E-01    6.235405E-02
    1.572085E-01   -6.231166E-01
    4.877936E-01    3.228602E-01
   -4.160034E-01    3.153110E-01
   -1.400328E-01   -4.356307E-01
    3.947022E-01    1.047342E-02
   -1.196855E-01    3.140844E-01
   -2.161587E-01   -1.826714E-01
    2.038006E-01   -1.198538E-01
    3.793558E-02    1.930120E-01
   -1.619886E-01   -2.340415E-02
    6.330414E-02   -1.212890E-01
    7.884184E-02    8.425640E-02
   -9.017666E-02    3.969348E-02
   -6.571740E-03   -8.506117E-02
    7.236619E-02    1.928511E-02
   -3.742932E-02    5.494746E-02
   -3.527361E-02   -4.784727E-02
    5.091975E-02   -1.562323E-02
   -1.894871E-03    4.753740E-02
   -3.918441E-02   -1.553187E-02
    2.417353E-02   -2.784574E-02
    1.572014E-02    2.756220E-02
   -2.633312E-02    4.813413E-03
    3.449011E-03   -2.182016E-02
    1.568177E-02    8.451453E-03
   -1.039050E-02    9.467451E-03
   -4.265932E-03   -1.005033E-02
    8.448109E-03   -5.403457E-04
   -1.817724E-03    6.475566E-03
   -4.655895E-03   -3.262552E-03
    4.298767E-03   -3.082184E-03
    1.530190E-03    5.232636E-03
   -6.052144E-03   -3.213308E-04
    2.661692E-03   -6.464451E-03
    6.056337E-03    5.399598E-03
   -8.144010E-03    4.503368E-03
   -1.744086E-03   -1.031161E-02
    1.131283E-02    1.941828E-03
   -5.976860E-03    1.074728E-02
   -8.540777E-03   -9.626290E-03
    1.218866E-02   -4.984213E-03
    6.675886E-04    1.317408E-02
   -1.241969E-02   -3.664755E-03
    7.289847E-03   -1.011512E-02
    6.738625E-03    9.666648E-03
   -1.053649E-02    2.930071E-03
    6.606280E-04   -9.948427E-03
    8.211133E-03    3.508940E-03
   -5.304790E-03    5.793238E-03
   -3.204032E-03   -5.980110E-03
    5.680628E-03   -8.835295E-04
   -8.700655E-04    4.694280E-03
   -3.364952E-03   -1.930158E-03
    2.328204E-03   -2.011083E-03
    8.689625E-04    2.208057E-03
   -1.768740E-03    6.611730E-05
    3.740814E-04   -1.208637E-03
    6.851248E-04    5.076787E-04
   -4.340958E-04    2.941338E-04
   -6.902420E-05   -2.615665E-04
    8.066829E-05    6.428427E-06
    2.217466E-05   -5.003565E-05
    1.065742E-04    1.002202E-04
   -1.800409E-04    9.341178E-05
   -3.266886E-05   -2.300850E-04
    2.372648E-04    4.723647E-05
   -1.207530E-04    2.041979E-04
   -1.435529E-04   -1.707101E-04
    1.899576E-04   -7.186462E-05
    4.345711E-06    1.801758E-04
   -1.488975E-04   -4.826275E-05
    8.085827E-05   -1.061503E-04
    6.154566E-05    9.347624E-05
   -8.975428E-05    2.241619E-05
    6.995046E-06   -7.514490E-05
    5.528721E-05    2.537870E-05
   -3.368887E-05    3.488858E-05
   -1.717363E-05   -3.420365E-05
    2.967319E-05   -3.813113E-06
   -4.826019E-06    2.266858E-05
   -1.520127E-05   -9.263319E-06
    1.049232E-05   -8.588345E-06
    3.496490E-06    9.627270E-06
   -7.671882E-06    8.321930E-08
    1.828319E-06   -5.395366E-06
    3.299192E-06    2.583075E-06
   -2.569456E-06    1.643211E-06
   -5.032320E-07   -2.135403E-06
    1.547592E-06    1.648787E-07
   -4.660880E-07    9.805549E-07
   -5.265634E-07   -5.222216E-07
    4.433666E-07   -2.152374E-07
    3.599755E-08    3.133041E-07
   -1.860247E-07   -4.222798E-08
    5.587056E-08   -8.895145E-08
    2.966929E-08    3.728013E-08
   -1.003413E-08    3.475887E-09
   -1.561610E-11    1.197490E-08
   -2.314266E-08   -8.175289E-09
    1.900784E-08   -2.363756E-08
    1.672810E-08    2.692652E-08
   -2.962163E-08    6.570801E-09
    3.266026E-09   -2.725567E-08
    2.139851E-08    1.051794E-08
   -1.431118E-08    1.405628E-08
   -6.982365E-09   -1.487640E-08
    1.308815E-08   -1.330432E-09
   -2.414532E-09    1.002852E-08
   -6.663273E-09   -4.307153E-09
    4.736547E-09   -3.671709E-09
    1.407074E-09    4.219732E-09
   -3.244690E-09   -5.084869E-11
    8.049682E-10   -2.183238E-09
    1.263559E-09    1.044579E-09
   -9.713472E-10    5.855101E-10
   -1.565898E-10   -7.535258E-10
    5.070006E-10    6.764195E-11
   -1.505173E-10    2.961654E-10
   -1.453060E-10   -1.519452E-10
    1.175569E-10   -5.327430E-11
    6.704100E-12    7.605681E-11
   -4.172697E-11   -1.063963E-11
    1.258581E-11   -1.891290E-11
    6.487782E-12    8.605316E-12
   -3.935782E-12    1.253383E-12
    2.128083E-14   -7.032869E-13
   -7.935790E-13   -3.039140E-13
    8.895279E-13   -1.048316E-12
    6.982577E-13    1.193105E-12
   -1.145295E-12    2.225254E-13
    1.287050E-13   -8.773175E-13
    5.492828E-13    2.881489E-13
   -2.920153E-13    2.721182E-13
   -9.250124E-14   -2.112906E-13
    1.101805E-13   -8.309755E-15
   -7.747464E-15    2.896156E-14
    1.672381E-14    1.148625E-14
   -3.929846E-14    2.880260E-14
   -1.807791E-14   -5.946787E-14
    6.573855E-14    2.786479E-15
   -2.352759E-14    5.892596E-14
   -4.353274E-14   -3.797597E-14
    4.396313E-14   -2.493406E-14
    7.613902E-15    4.223248E-14
   -3.512636E-14   -5.639352E-15
    1.377733E-14   -2.541551E-14
    1.550837E-14    1.710171E-14
   -1.672235E-14    7.050671E-15
   -8.633237E-16   -1.403154E-14
    1.033102E-14    2.927329E-15
   -4.657817E-15    6.613552E-15
   -3.490283E-15   -4.892759E-15
    4.228932E-15   -1.225514E-15
   -1.763448E-16    3.173994E-15
   -2.088039E-15   -8.658050E-16
    1.055376E-15   -1.177984E-15
    5.239744E-16    9.530693E-16
   -7.239265E-16    1.206178E-16
    8.322597E-17   -4.777501E-16
    2.730471E-16    1.527484E-16
   -1.471271E-16    1.298910E-16
   -4.474257E-17   -1.102003E-16
    6.883180E-17   -3.312748E-18
   -1.069511E-17    3.590448E-17
   -1.487957E-17   -1.078373E-17
    6.005835E-18   -4.162242E-18
    3.403057E-19    1.241842E-18
    1.659172E-18    1.130713E-19
   -1.118938E-18    2.602601E-18
   -2.233479E-18   -2.054622E-18
    2.438388E-18   -1.299216E-18
    3.488023E-19    2.277638E-18
   -1.783263E-18   -3.348698E-19
    6.843934E-19   -1.186490E-18
    6.517995E-19    7.581626E-19
   -6.607146E-19    2.581915E-19
   -1.715325E-20   -4.905029E-19
    3.167585E-19    9.889348E-20
   -1.311254E-19    1.760462E-19
   -7.945982E-20   -1.178773E-19
    8.720114E-20   -2.278254E-20
   -4.580669E-21    5.572271E-20
   -3.095674E-20   -1.380932E-20
    1.376807E-20   -1.456824E-20
