 Vespa-Simulation Mixed Metabolite Output
 This file was generated by Vespa-Simulation. You can learn about and download Vespa here:
https://github.com/vespa-mrs/vespa/tree/main/vespa

 
 Output Path/Filename = /home/stud/casperc/bhome/Project1(DeepFit)/DeepFit-data-generation/Initial_spectra_linewidth_10_TE30_1024p
 Output Loop Values = (1,1,1)  ( Loop 1 = 15, Loop 2 = 15, Loop3 Inactive )
 Output Comment
 ---------------------------------------------------------------------------
 
 
 Experiment Information
 ---------------------------------------------------------------------------
 --- Experiment 32780d98-dc11-42ab-ab27-92876fb0934a ---
 Name: PRESS_3T_30TE
 Public: False
 Created: 2023-12-19T15:15:29
 Comment (abbr.): LC-Model basis set clone +2-HG
 PI: Casper Cappelen
 b0: 127.740000
 Peak Search PPM low/high: 0.000000 / 10.000000
 Blend tol. PPM/phase: 0.001500 / 50.000000
 Pulse seq.: 43be13ae-de9a-40a1-9a2d-c872d8bjs100 (PRESS Ideal)
 0 User static parameters: 
 19 Metabolites: 2-hydroxyglutarate, GPC-gp, NAAG-truncated, alanine, aspartate, creatine, gaba, glucose-alpha, glucose-beta, glutamate, glutamine, glutathione-glutamate, lactate, myo-inositol, n-acetylaspartate, phosphocreatine, phosphorylcholine-notrimethyl, scyllo-inositol, taurine
 19 Simulations: (not shown)
 
 Metabolite Formatting Information
 ---------------------------------------------------------------------------
 Name=GPC-gp Abbr=GPC Scale=1.0 Shift=0.0 PPM Start=0.0 PPM End=4.5
 Name=NAAG-truncated Abbr=NAAG Scale=1.0 Shift=0.0 PPM Start=0.0 PPM End=4.5
 Name=alanine Abbr=Ala Scale=1.0 Shift=0.0 PPM Start=0.0 PPM End=4.5
 Name=aspartate Abbr=Asp Scale=1.0 Shift=0.0 PPM Start=0.0 PPM End=4.5
 Name=creatine Abbr=Cr Scale=1.0 Shift=0.1 PPM Start=0.0 PPM End=4.5
 Name=gaba Abbr=GABA Scale=1.0 Shift=0.0 PPM Start=0.0 PPM End=4.5
 Name=glutamate Abbr=Glu Scale=1.0 Shift=0.0 PPM Start=0.0 PPM End=4.5
 Name=glutamine Abbr=Gln Scale=1.0 Shift=0.0 PPM Start=0.0 PPM End=4.5
 Name=glutathione-glutamate Abbr=GSH Scale=1.0 Shift=0.0 PPM Start=0.0 PPM End=4.5
 Name=lactate Abbr=Lac Scale=1.0 Shift=0.0 PPM Start=0.0 PPM End=4.5
 Name=myo-inositol Abbr=mI Scale=1.0 Shift=0.0 PPM Start=0.0 PPM End=4.5
 Name=n-acetylaspartate Abbr=NAA Scale=1.0 Shift=0.0 PPM Start=0.0 PPM End=4.5
 Name=phosphocreatine Abbr=PCr Scale=1.0 Shift=0.0 PPM Start=0.0 PPM End=4.5
 Name=phosphorylcholine-notrimethyl Abbr=PCho Scale=1.0 Shift=0.0 PPM Start=0.0 PPM End=4.5
 Name=taurine Abbr=Tau Scale=1.0 Shift=0.0 PPM Start=0.0 PPM End=4.5
 Name=glucose-alpha+glucose-beta Abbr=Glc Scale=1.0 Shift=0.0 PPM Start=0.0 PPM End=4.5
   Mixture of [metab*scale] = glucose-alpha*1.000000 + glucose-beta*1.000000
 
 ===========================================================================
 This LCModel format RAW file was created using the 
 Vespa-Simulation spectral simulation program using 
 the following settings and parameters 
 
 Sweep Width = 574.83 Hz 
 Vector Size = 1024 points 
 Apodization = 10.0 Hz Gaussian broadening
 B0 Field    = 127.74 MHz 
 Ref Singlet = False
  
 This data has been FFTd to be in the FREQUENCY domain
 
 $NMID ID='Tau'
 FMTDAT='(2E16.6)'
 VOLUME=1.0
 TRAMP=1.0
 $END
    1.924432E+00    1.382394E+00
    1.924382E+00    1.391445E+00
    1.924330E+00    1.400537E+00
    1.924278E+00    1.409670E+00
    1.924224E+00    1.418845E+00
    1.924170E+00    1.428061E+00
    1.924115E+00    1.437320E+00
    1.924059E+00    1.446622E+00
    1.924002E+00    1.455968E+00
    1.923944E+00    1.465357E+00
    1.923886E+00    1.474792E+00
    1.923827E+00    1.484271E+00
    1.923767E+00    1.493796E+00
    1.923706E+00    1.503367E+00
    1.923645E+00    1.512985E+00
    1.923583E+00    1.522650E+00
    1.923521E+00    1.532362E+00
    1.923458E+00    1.542123E+00
    1.923394E+00    1.551933E+00
    1.923330E+00    1.561791E+00
    1.923265E+00    1.571700E+00
    1.923200E+00    1.581659E+00
    1.923134E+00    1.591669E+00
    1.923067E+00    1.601730E+00
    1.922999E+00    1.611843E+00
    1.922931E+00    1.622009E+00
    1.922863E+00    1.632228E+00
    1.922793E+00    1.642502E+00
    1.922723E+00    1.652829E+00
    1.922652E+00    1.663212E+00
    1.922581E+00    1.673650E+00
    1.922509E+00    1.684145E+00
    1.922435E+00    1.694697E+00
    1.922361E+00    1.705307E+00
    1.922287E+00    1.715975E+00
    1.922211E+00    1.726702E+00
    1.922134E+00    1.737489E+00
    1.922057E+00    1.748337E+00
    1.921978E+00    1.759246E+00
    1.921899E+00    1.770217E+00
    1.921819E+00    1.781252E+00
    1.921738E+00    1.792349E+00
    1.921656E+00    1.803511E+00
    1.921574E+00    1.814738E+00
    1.921490E+00    1.826031E+00
    1.921406E+00    1.837391E+00
    1.921320E+00    1.848818E+00
    1.921233E+00    1.860313E+00
    1.921146E+00    1.871877E+00
    1.921057E+00    1.883511E+00
    1.920967E+00    1.895217E+00
    1.920876E+00    1.906994E+00
    1.920784E+00    1.918843E+00
    1.920690E+00    1.930767E+00
    1.920596E+00    1.942765E+00
    1.920500E+00    1.954838E+00
    1.920403E+00    1.966988E+00
    1.920304E+00    1.979215E+00
    1.920204E+00    1.991521E+00
    1.920103E+00    2.003906E+00
    1.920001E+00    2.016372E+00
    1.919897E+00    2.028919E+00
    1.919792E+00    2.041549E+00
    1.919685E+00    2.054262E+00
    1.919577E+00    2.067061E+00
    1.919468E+00    2.079945E+00
    1.919357E+00    2.092916E+00
    1.919244E+00    2.105976E+00
    1.919130E+00    2.119125E+00
    1.919015E+00    2.132365E+00
    1.918898E+00    2.145696E+00
    1.918780E+00    2.159120E+00
    1.918661E+00    2.172639E+00
    1.918540E+00    2.186253E+00
    1.918417E+00    2.199963E+00
    1.918292E+00    2.213772E+00
    1.918166E+00    2.227680E+00
    1.918039E+00    2.241689E+00
    1.917909E+00    2.255800E+00
    1.917778E+00    2.270014E+00
    1.917645E+00    2.284334E+00
    1.917510E+00    2.298760E+00
    1.917374E+00    2.313294E+00
    1.917235E+00    2.327937E+00
    1.917095E+00    2.342692E+00
    1.916953E+00    2.357559E+00
    1.916809E+00    2.372540E+00
    1.916662E+00    2.387637E+00
    1.916514E+00    2.402852E+00
    1.916364E+00    2.418186E+00
    1.916211E+00    2.433640E+00
    1.916056E+00    2.449218E+00
    1.915899E+00    2.464920E+00
    1.915740E+00    2.480748E+00
    1.915579E+00    2.496704E+00
    1.915415E+00    2.512791E+00
    1.915249E+00    2.529010E+00
    1.915081E+00    2.545362E+00
    1.914910E+00    2.561851E+00
    1.914737E+00    2.578478E+00
    1.914562E+00    2.595245E+00
    1.914384E+00    2.612154E+00
    1.914204E+00    2.629207E+00
    1.914021E+00    2.646407E+00
    1.913835E+00    2.663756E+00
    1.913647E+00    2.681255E+00
    1.913456E+00    2.698908E+00
    1.913261E+00    2.716717E+00
    1.913064E+00    2.734684E+00
    1.912863E+00    2.752813E+00
    1.912659E+00    2.771104E+00
    1.912452E+00    2.789562E+00
    1.912242E+00    2.808189E+00
    1.912028E+00    2.826988E+00
    1.911811E+00    2.845961E+00
    1.911590E+00    2.865111E+00
    1.911366E+00    2.884442E+00
    1.911138E+00    2.903956E+00
    1.910907E+00    2.923655E+00
    1.910672E+00    2.943545E+00
    1.910434E+00    2.963627E+00
    1.910191E+00    2.983904E+00
    1.909945E+00    3.004381E+00
    1.909695E+00    3.025060E+00
    1.909440E+00    3.045945E+00
    1.909182E+00    3.067039E+00
    1.908919E+00    3.088347E+00
    1.908652E+00    3.109871E+00
    1.908381E+00    3.131617E+00
    1.908105E+00    3.153586E+00
    1.907824E+00    3.175784E+00
    1.907539E+00    3.198215E+00
    1.907249E+00    3.220883E+00
    1.906953E+00    3.243791E+00
    1.906653E+00    3.266945E+00
    1.906347E+00    3.290349E+00
    1.906035E+00    3.314008E+00
    1.905718E+00    3.337926E+00
    1.905396E+00    3.362109E+00
    1.905067E+00    3.386561E+00
    1.904732E+00    3.411287E+00
    1.904391E+00    3.436293E+00
    1.904044E+00    3.461585E+00
    1.903691E+00    3.487167E+00
    1.903331E+00    3.513046E+00
    1.902965E+00    3.539226E+00
    1.902592E+00    3.565715E+00
    1.902213E+00    3.592518E+00
    1.901826E+00    3.619641E+00
    1.901433E+00    3.647091E+00
    1.901032E+00    3.674874E+00
    1.900623E+00    3.702998E+00
    1.900207E+00    3.731468E+00
    1.899783E+00    3.760293E+00
    1.899350E+00    3.789479E+00
    1.898908E+00    3.819035E+00
    1.898458E+00    3.848967E+00
    1.897998E+00    3.879286E+00
    1.897529E+00    3.909997E+00
    1.897051E+00    3.941111E+00
    1.896562E+00    3.972636E+00
    1.896063E+00    4.004582E+00
    1.895554E+00    4.036957E+00
    1.895034E+00    4.069771E+00
    1.894503E+00    4.103034E+00
    1.893961E+00    4.136756E+00
    1.893408E+00    4.170948E+00
    1.892843E+00    4.205621E+00
    1.892266E+00    4.240785E+00
    1.891676E+00    4.276453E+00
    1.891073E+00    4.312636E+00
    1.890457E+00    4.349346E+00
    1.889827E+00    4.386597E+00
    1.889182E+00    4.424401E+00
    1.888523E+00    4.462773E+00
    1.887850E+00    4.501725E+00
    1.887160E+00    4.541274E+00
    1.886455E+00    4.581433E+00
    1.885733E+00    4.622218E+00
    1.884994E+00    4.663646E+00
    1.884237E+00    4.705733E+00
    1.883462E+00    4.748496E+00
    1.882669E+00    4.791954E+00
    1.881855E+00    4.836124E+00
    1.881022E+00    4.881027E+00
    1.880168E+00    4.926682E+00
    1.879291E+00    4.973109E+00
    1.878393E+00    5.020332E+00
    1.877471E+00    5.068371E+00
    1.876526E+00    5.117250E+00
    1.875555E+00    5.166994E+00
    1.874558E+00    5.217627E+00
    1.873535E+00    5.269177E+00
    1.872484E+00    5.321669E+00
    1.871405E+00    5.375133E+00
    1.870295E+00    5.429598E+00
    1.869154E+00    5.485094E+00
    1.867980E+00    5.541655E+00
    1.866772E+00    5.599313E+00
    1.865529E+00    5.658104E+00
    1.864248E+00    5.718065E+00
    1.862927E+00    5.779234E+00
    1.861566E+00    5.841652E+00
    1.860161E+00    5.905361E+00
    1.858710E+00    5.970407E+00
    1.857211E+00    6.036835E+00
