jMRUI Data Textfile
 
Filename: 2HG.txt
 
PointsInDataset: 2048
DatasetsInFile: 1
SamplingInterval: 5.00000E-01
ZeroOrderPhase: 0E0
BeginTime: 0E0
TransmitterFrequency: 1.27740E+08
MagneticField: 0E0
TypeOfNucleus: 0E0
NameOfPatient: 
DateOfExperiment: 
Spectrometer: Vespa-Simulation
AdditionalInfo: see 'readme' file for Vespa-Simulation output synopsis
 
  
Signal and FFT 
sig(real)	sig(imag)	fft(real)	fft(imag)
Signal 1 out of 1 in file
4.58399E+00	-2.72237E-02	2.37018E+00	-6.45703E+00
2.65537E+00	-3.45294E+00	2.36776E+00	-6.40911E+00
-1.12920E+00	-3.59529E+00	2.36532E+00	-6.36199E+00
-3.01488E+00	-5.73038E-01	2.36301E+00	-6.31553E+00
-1.31629E+00	2.32624E+00	2.36094E+00	-6.26993E+00
1.94326E+00	2.10704E+00	2.35901E+00	-6.22524E+00
3.25376E+00	-9.06605E-01	2.35702E+00	-6.18140E+00
1.24596E+00	-3.57378E+00	2.35503E+00	-6.13827E+00
-2.06438E+00	-3.26240E+00	2.35310E+00	-6.09578E+00
-3.52478E+00	-4.29753E-01	2.35124E+00	-6.05399E+00
-2.04512E+00	2.09386E+00	2.34942E+00	-6.01283E+00
5.51505E-01	2.10579E+00	2.34776E+00	-5.97230E+00
1.63805E+00	8.83619E-02	2.34615E+00	-5.93245E+00
4.21842E-01	-1.61179E+00	2.34465E+00	-5.89325E+00
-1.55906E+00	-1.30598E+00	2.34316E+00	-5.85473E+00
-2.26547E+00	5.27106E-01	2.34168E+00	-5.81680E+00
-1.16605E+00	2.05777E+00	2.34017E+00	-5.77942E+00
5.49845E-01	2.05550E+00	2.33874E+00	-5.74253E+00
1.41678E+00	8.83034E-01	2.33740E+00	-5.70618E+00
1.06641E+00	-2.10984E-01	2.33608E+00	-5.67040E+00
2.46964E-01	-4.28668E-01	2.33480E+00	-5.63507E+00
-1.70370E-01	3.33421E-02	2.33364E+00	-5.60026E+00
3.28567E-02	5.03990E-01	2.33252E+00	-5.56604E+00
5.12832E-01	5.74861E-01	2.33135E+00	-5.53230E+00
8.94371E-01	2.79906E-01	2.33018E+00	-5.49900E+00
1.03132E+00	-1.94615E-01	2.32906E+00	-5.46609E+00
8.81673E-01	-7.10680E-01	2.32800E+00	-5.43365E+00
4.11373E-01	-1.09255E+00	2.32696E+00	-5.40160E+00
-2.53485E-01	-1.08139E+00	2.32602E+00	-5.37000E+00
-7.22034E-01	-5.82480E-01	2.32510E+00	-5.33884E+00
-6.15993E-01	6.96768E-02	2.32419E+00	-5.30815E+00
-2.76030E-02	2.88877E-01	2.32327E+00	-5.27779E+00
4.22666E-01	-1.77762E-01	2.32236E+00	-5.24786E+00
1.48522E-01	-8.80141E-01	2.32148E+00	-5.21826E+00
-7.45772E-01	-1.02150E+00	2.32059E+00	-5.18903E+00
-1.46461E+00	-2.68196E-01	2.31976E+00	-5.16009E+00
-1.27603E+00	8.33945E-01	2.31899E+00	-5.13157E+00
-2.77684E-01	1.33932E+00	2.31822E+00	-5.10334E+00
6.48372E-01	8.36664E-01	2.31753E+00	-5.07553E+00
6.90670E-01	-1.21595E-01	2.31682E+00	-5.04802E+00
-8.66046E-02	-5.57539E-01	2.31606E+00	-5.02092E+00
-8.12535E-01	-3.71077E-02	2.31535E+00	-4.99400E+00
-6.81100E-01	9.09839E-01	2.31464E+00	-4.96743E+00
2.58725E-01	1.32946E+00	2.31402E+00	-4.94113E+00
1.17318E+00	7.81919E-01	2.31335E+00	-4.91519E+00
1.27048E+00	-2.56490E-01	2.31273E+00	-4.88948E+00
5.44241E-01	-8.88492E-01	2.31215E+00	-4.86406E+00
-2.73269E-01	-6.57983E-01	2.31158E+00	-4.83901E+00
-4.46539E-01	6.55119E-02	2.31091E+00	-4.81420E+00
8.65855E-02	5.01936E-01	2.31031E+00	-4.78951E+00
7.21820E-01	2.16899E-01	2.30981E+00	-4.76511E+00
8.05934E-01	-5.12559E-01	2.30942E+00	-4.74108E+00
2.36238E-01	-1.01689E+00	2.30887E+00	-4.71739E+00
-4.99733E-01	-8.73241E-01	2.30832E+00	-4.69379E+00
-8.15697E-01	-2.53989E-01	2.30788E+00	-4.67052E+00
-5.47932E-01	2.90716E-01	2.30733E+00	-4.64752E+00
-4.34999E-02	3.53740E-01	2.30674E+00	-4.62464E+00
2.05412E-01	9.00285E-04	2.30629E+00	-4.60185E+00
3.67635E-03	-3.49839E-01	2.30601E+00	-4.57951E+00
-4.18284E-01	-3.34539E-01	2.30549E+00	-4.55743E+00
-6.55517E-01	5.08871E-02	2.30503E+00	-4.53536E+00
-4.93938E-01	4.89671E-01	2.30476E+00	-4.51363E+00
-6.76988E-02	6.46880E-01	2.30435E+00	-4.49225E+00
2.92963E-01	4.47350E-01	2.30384E+00	-4.47095E+00
3.54468E-01	1.03371E-01	2.30340E+00	-4.44973E+00
1.54547E-01	-9.51671E-02	2.30314E+00	-4.42880E+00
-6.62641E-02	-2.49400E-02	2.30268E+00	-4.40818E+00
-8.74461E-02	1.93739E-01	2.30228E+00	-4.38748E+00
1.13590E-01	3.26007E-01	2.30206E+00	-4.36717E+00
3.64572E-01	2.28123E-01	2.30169E+00	-4.34708E+00
4.57787E-01	-4.32750E-02	2.30131E+00	-4.32708E+00
3.21375E-01	-2.93761E-01	2.30102E+00	-4.30724E+00
6.57808E-02	-3.57847E-01	2.30072E+00	-4.28772E+00
-1.19391E-01	-2.27589E-01	2.30025E+00	-4.26825E+00
-1.22715E-01	-4.43906E-02	2.30004E+00	-4.24877E+00
7.29582E-03	2.82997E-02	2.29989E+00	-4.22984E+00
1.16329E-01	-5.96647E-02	2.29943E+00	-4.21095E+00
8.13477E-02	-2.12261E-01	2.29911E+00	-4.19201E+00
-8.68867E-02	-2.77830E-01	2.29902E+00	-4.17337E+00
-2.59114E-01	-1.81380E-01	2.29871E+00	-4.15513E+00
-3.02253E-01	1.42902E-02	2.29828E+00	-4.13669E+00
-1.92036E-01	1.67127E-01	2.29815E+00	-4.11850E+00
-2.78819E-02	1.78792E-01	2.29786E+00	-4.10052E+00
5.81859E-02	7.41445E-02	2.29769E+00	-4.08263E+00
1.52913E-02	-2.90600E-02	2.29738E+00	-4.06505E+00
-8.92550E-02	-2.84154E-02	2.29712E+00	-4.04729E+00
-1.37595E-01	7.49479E-02	2.29708E+00	-4.02998E+00
-6.89816E-02	1.84037E-01	2.29670E+00	-4.01283E+00
6.91305E-02	1.97497E-01	2.29639E+00	-3.99555E+00
1.68282E-01	9.97426E-02	2.29627E+00	-3.97849E+00
1.57410E-01	-2.96729E-02	2.29609E+00	-3.96166E+00
6.24173E-02	-9.12108E-02	2.29587E+00	-3.94496E+00
-2.37211E-02	-5.33388E-02	2.29557E+00	-3.92831E+00
-2.81939E-02	2.58887E-02	2.29546E+00	-3.91176E+00
3.88169E-02	5.87875E-02	2.29525E+00	-3.89548E+00
1.00896E-01	1.01786E-02	2.29501E+00	-3.87922E+00
9.11899E-02	-7.45050E-02	2.29481E+00	-3.86304E+00
1.38114E-02	-1.17262E-01	2.29471E+00	-3.84704E+00
-6.48866E-02	-8.21314E-02	2.29449E+00	-3.83119E+00
-8.20763E-02	-5.15787E-03	2.29439E+00	-3.81542E+00
-3.55727E-02	4.49062E-02	2.29416E+00	-3.79990E+00
2.05109E-02	3.28003E-02	2.29385E+00	-3.78429E+00
3.22422E-02	-1.47929E-02	2.29374E+00	-3.76872E+00
-3.76917E-03	-4.20022E-02	2.29372E+00	-3.75347E+00
-4.34313E-02	-2.05919E-02	2.29345E+00	-3.73839E+00
-4.32844E-02	2.58978E-02	2.29325E+00	-3.72313E+00
-2.74745E-03	5.04592E-02	2.29323E+00	-3.70814E+00
3.95258E-02	3.04522E-02	2.29312E+00	-3.69335E+00
4.65907E-02	-1.32130E-02	2.29284E+00	-3.67865E+00
1.78605E-02	-4.07183E-02	2.29264E+00	-3.66379E+00
-1.49941E-02	-3.30172E-02	2.29268E+00	-3.64918E+00
-2.22436E-02	-6.82928E-03	2.29260E+00	-3.63487E+00
-4.13129E-03	6.24076E-03	2.29221E+00	-3.62058E+00
1.30983E-02	-7.78585E-03	2.29212E+00	-3.60591E+00
5.53946E-03	-3.32556E-02	2.29233E+00	-3.59195E+00
-2.51114E-02	-4.22769E-02	2.29195E+00	-3.57811E+00
-5.44858E-02	-2.21124E-02	2.29163E+00	-3.56384E+00
-5.93169E-02	1.37183E-02	2.29177E+00	-3.54977E+00
-3.83981E-02	3.92250E-02	2.29179E+00	-3.53625E+00
-1.20035E-02	4.00548E-02	2.29136E+00	-3.52254E+00
-1.87288E-03	2.54045E-02	2.29129E+00	-3.50869E+00
-1.10291E-02	1.77214E-02	2.29141E+00	-3.49508E+00
-2.18000E-02	3.05715E-02	2.29135E+00	-3.48198E+00
-1.33321E-02	5.53492E-02	2.29084E+00	-3.46859E+00
1.79132E-02	6.90804E-02	2.29089E+00	-3.45486E+00
5.39633E-02	5.59989E-02	2.29110E+00	-3.44197E+00
7.15367E-02	2.25342E-02	2.29069E+00	-3.42895E+00
6.33678E-02	-8.69934E-03	2.29056E+00	-3.41575E+00
4.40846E-02	-2.02568E-02	2.29057E+00	-3.40265E+00
3.49056E-02	-1.57457E-02	2.29068E+00	-3.38999E+00
4.23713E-02	-1.46136E-02	2.29023E+00	-3.37732E+00
5.24271E-02	-3.12751E-02	2.29020E+00	-3.36419E+00
4.55740E-02	-5.99248E-02	2.29038E+00	-3.35172E+00
1.72450E-02	-8.03851E-02	2.29010E+00	-3.33933E+00
-1.76209E-02	-7.84728E-02	2.28991E+00	-3.32662E+00
-3.99997E-02	-5.94379E-02	2.29002E+00	-3.31417E+00
-4.54134E-02	-4.08556E-02	2.28997E+00	-3.30194E+00
-4.61696E-02	-3.33847E-02	2.28983E+00	-3.28974E+00
-5.56738E-02	-3.03342E-02	2.28968E+00	-3.27749E+00
-7.24363E-02	-1.68840E-02	2.28961E+00	-3.26534E+00
-8.12513E-02	1.16967E-02	2.28949E+00	-3.25327E+00
-7.00984E-02	4.29596E-02	2.28942E+00	-3.24122E+00
-4.43292E-02	5.93347E-02	2.28939E+00	-3.22925E+00
-2.24156E-02	5.67616E-02	2.28939E+00	-3.21739E+00
-1.68353E-02	4.99135E-02	2.28938E+00	-3.20566E+00
-1.96033E-02	5.72532E-02	2.28930E+00	-3.19402E+00
-8.58670E-03	7.98022E-02	2.28917E+00	-3.18241E+00
2.92157E-02	9.55159E-02	2.28902E+00	-3.17080E+00
7.92372E-02	7.80969E-02	2.28893E+00	-3.15920E+00
1.06510E-01	2.54579E-02	2.28890E+00	-3.14769E+00
8.71393E-02	-3.02058E-02	2.28888E+00	-3.13628E+00
3.69336E-02	-4.66084E-02	2.28886E+00	-3.12494E+00
5.27955E-03	-1.36422E-02	2.28883E+00	-3.11372E+00
3.04417E-02	2.71733E-02	2.28872E+00	-3.10253E+00
9.38692E-02	1.47183E-02	2.28865E+00	-3.09136E+00
1.24601E-01	-6.80439E-02	2.28860E+00	-3.08025E+00
6.43147E-02	-1.61141E-01	2.28855E+00	-3.06923E+00
-6.27219E-02	-1.72315E-01	2.28846E+00	-3.05824E+00
-1.53345E-01	-7.10688E-02	2.28843E+00	-3.04727E+00
-1.19236E-01	6.16884E-02	2.28844E+00	-3.03641E+00
1.24992E-02	9.68534E-02	2.28840E+00	-3.02568E+00
1.04761E-01	-1.08896E-02	2.28829E+00	-3.01496E+00
4.03432E-02	-1.56152E-01	2.28821E+00	-3.00422E+00
-1.43910E-01	-1.71033E-01	2.28820E+00	-2.99356E+00
-2.69327E-01	-4.21672E-05	2.28814E+00	-2.98300E+00
-1.87644E-01	2.18707E-01	2.28808E+00	-2.97243E+00
5.18484E-02	2.73102E-01	2.28810E+00	-2.96192E+00
2.27196E-01	9.60722E-02	2.28810E+00	-2.95155E+00
1.60550E-01	-1.44073E-01	2.28804E+00	-2.94123E+00
-8.65547E-02	-1.98006E-01	2.28794E+00	-2.93094E+00
-2.55781E-01	6.03660E-03	2.28786E+00	-2.92063E+00
-1.50372E-01	2.70196E-01	2.28782E+00	-2.91038E+00
1.50885E-01	3.15963E-01	2.28780E+00	-2.90018E+00
3.57649E-01	7.26057E-02	2.28778E+00	-2.89006E+00
2.59601E-01	-2.36905E-01	2.28776E+00	-2.87999E+00
-5.22314E-02	-3.13996E-01	2.28773E+00	-2.86996E+00
-2.70262E-01	-8.89979E-02	2.28775E+00	-2.86001E+00
-1.80908E-01	2.04542E-01	2.28771E+00	-2.85014E+00
1.18703E-01	2.66095E-01	2.28765E+00	-2.84028E+00
3.21423E-01	3.16896E-02	2.28759E+00	-2.83045E+00
2.21425E-01	-2.66548E-01	2.28754E+00	-2.82067E+00
-8.48119E-02	-3.39168E-01	2.28747E+00	-2.81090E+00
-3.05678E-01	-1.25091E-01	2.28748E+00	-2.80113E+00
-2.46722E-01	1.62352E-01	2.28757E+00	-2.79150E+00
1.14822E-02	2.58012E-01	2.28756E+00	-2.78208E+00
2.13153E-01	9.77301E-02	2.28733E+00	-2.77257E+00
1.81251E-01	-1.43566E-01	2.28720E+00	-2.76288E+00
-3.17450E-02	-2.38711E-01	2.28727E+00	-2.75326E+00
-2.20998E-01	-1.16390E-01	2.28743E+00	-2.74385E+00
-2.28221E-01	1.00543E-01	2.28743E+00	-2.73458E+00
-6.56235E-02	2.28508E-01	2.28741E+00	-2.72526E+00
