jMRUI Data Textfile
 
Filename: ETA.txt
 
PointsInDataset: 2048
DatasetsInFile: 1
SamplingInterval: 5.00000E-01
ZeroOrderPhase: 0E0
BeginTime: 0E0
TransmitterFrequency: 1.27740E+08
MagneticField: 0E0
TypeOfNucleus: 0E0
NameOfPatient: 
DateOfExperiment: 
Spectrometer: Vespa-Simulation
AdditionalInfo: see 'readme' file for Vespa-Simulation output synopsis
 
  
Signal and FFT 
sig(real)	sig(imag)	fft(real)	fft(imag)
Signal 1 out of 1 in file
3.66798E+00	8.12502E-05	1.91408E+00	-7.97882E+00
3.19938E+00	-1.70061E+00	1.91272E+00	-7.91880E+00
1.96562E+00	-2.91267E+00	1.91136E+00	-7.85975E+00
3.50581E-01	-3.32463E+00	1.91003E+00	-7.80153E+00
-1.16569E+00	-2.88887E+00	1.90872E+00	-7.74423E+00
-2.17119E+00	-1.82386E+00	1.90739E+00	-7.68770E+00
-2.45525E+00	-5.23518E-01	1.90617E+00	-7.63195E+00
-2.06397E+00	5.90220E-01	1.90500E+00	-7.57710E+00
-1.26113E+00	1.21594E+00	1.90379E+00	-7.52299E+00
-4.13222E-01	1.26819E+00	1.90264E+00	-7.46962E+00
1.55730E-01	8.87244E-01	1.90155E+00	-7.41701E+00
2.83736E-01	3.63485E-01	1.90048E+00	-7.36514E+00
2.11675E-02	8.97756E-03	1.89947E+00	-7.31402E+00
-4.04626E-01	2.71951E-02	1.89842E+00	-7.26364E+00
-6.93658E-01	4.31263E-01	1.89736E+00	-7.21389E+00
-6.04094E-01	1.04101E+00	1.89635E+00	-7.16477E+00
-5.78935E-02	1.55831E+00	1.89539E+00	-7.11630E+00
8.19555E-01	1.69014E+00	1.89449E+00	-7.06847E+00
1.74084E+00	1.27111E+00	1.89365E+00	-7.02135E+00
2.36272E+00	3.37976E-01	1.89274E+00	-6.97487E+00
2.41629E+00	-8.72503E-01	1.89184E+00	-6.92895E+00
1.81198E+00	-2.00177E+00	1.89095E+00	-6.88359E+00
6.79620E-01	-2.69448E+00	1.89014E+00	-6.83879E+00
-6.70991E-01	-2.72387E+00	1.88935E+00	-6.79462E+00
-1.85433E+00	-2.07152E+00	1.88852E+00	-6.75101E+00
-2.53959E+00	-9.32949E-01	1.88770E+00	-6.70788E+00
-2.55983E+00	3.51746E-01	1.88695E+00	-6.66528E+00
-1.96133E+00	1.41559E+00	1.88625E+00	-6.62320E+00
-9.77192E-01	1.98734E+00	1.88560E+00	-6.58173E+00
6.25236E-02	1.97509E+00	1.88485E+00	-6.54080E+00
8.49460E-01	1.48253E+00	1.88407E+00	-6.50028E+00
1.20015E+00	7.55403E-01	1.88335E+00	-6.46018E+00
1.10750E+00	8.09790E-02	1.88268E+00	-6.42061E+00
7.24405E-01	-3.19980E-01	1.88200E+00	-6.38145E+00
2.89395E-01	-3.68735E-01	1.88143E+00	-6.34275E+00
2.52190E-02	-1.44831E-01	1.88087E+00	-6.30460E+00
5.01033E-02	1.59673E-01	1.88025E+00	-6.26692E+00
3.35043E-01	3.27807E-01	1.87958E+00	-6.22963E+00
7.21612E-01	2.11511E-01	1.87895E+00	-6.19270E+00
9.91437E-01	-2.04916E-01	1.87835E+00	-6.15622E+00
9.58836E-01	-7.95553E-01	1.87776E+00	-6.12012E+00
5.50209E-01	-1.34053E+00	1.87717E+00	-6.08440E+00
-1.60357E-01	-1.61112E+00	1.87672E+00	-6.04902E+00
-9.72735E-01	-1.45949E+00	1.87630E+00	-6.01424E+00
-1.63065E+00	-8.78723E-01	1.87569E+00	-5.97985E+00
-1.91367E+00	-1.07265E-02	1.87509E+00	-5.94565E+00
-1.71643E+00	9.00238E-01	1.87465E+00	-5.91187E+00
-1.08645E+00	1.59110E+00	1.87411E+00	-5.87851E+00
-2.07273E-01	1.86914E+00	1.87360E+00	-5.84540E+00
6.65482E-01	1.67479E+00	1.87316E+00	-5.81266E+00
1.29139E+00	1.09633E+00	1.87272E+00	-5.78033E+00
1.52328E+00	3.32954E-01	1.87229E+00	-5.74830E+00
1.34932E+00	-3.78586E-01	1.87188E+00	-5.71667E+00
8.85522E-01	-8.45542E-01	1.87143E+00	-5.68533E+00
3.24335E-01	-9.79881E-01	1.87102E+00	-5.65435E+00
-1.39684E-01	-8.17138E-01	1.87051E+00	-5.62368E+00
-3.78854E-01	-4.89652E-01	1.87003E+00	-5.59321E+00
-3.70951E-01	-1.66766E-01	1.86965E+00	-5.56302E+00
-1.95432E-01	1.36658E-02	1.86934E+00	-5.53321E+00
8.75290E-03	-3.75148E-03	1.86901E+00	-5.50375E+00
1.05296E-01	-1.76637E-01	1.86864E+00	-5.47462E+00
1.77993E-02	-3.89032E-01	1.86825E+00	-5.44575E+00
-2.39649E-01	-5.03809E-01	1.86785E+00	-5.41716E+00
-5.69320E-01	-4.21770E-01	1.86743E+00	-5.38881E+00
-8.30022E-01	-1.24287E-01	1.86706E+00	-5.36072E+00
-8.94205E-01	3.16519E-01	1.86668E+00	-5.33292E+00
-6.99478E-01	7.63318E-01	1.86627E+00	-5.30535E+00
-2.75096E-01	1.06400E+00	1.86594E+00	-5.27797E+00
2.66131E-01	1.10789E+00	1.86572E+00	-5.25088E+00
7.66760E-01	8.66395E-01	1.86559E+00	-5.22423E+00
1.07953E+00	4.03366E-01	1.86517E+00	-5.19805E+00
1.11732E+00	-1.47395E-01	1.86449E+00	-5.17177E+00
8.80859E-01	-6.28709E-01	1.86403E+00	-5.14545E+00
4.54743E-01	-9.12945E-01	1.86384E+00	-5.11939E+00
-2.51258E-02	-9.41922E-01	1.86386E+00	-5.09376E+00
-4.19770E-01	-7.40846E-01	1.86380E+00	-5.06875E+00
-6.32979E-01	-4.02533E-01	1.86331E+00	-5.04391E+00
-6.38755E-01	-4.95653E-02	1.86281E+00	-5.01906E+00
-4.81787E-01	2.10368E-01	1.86235E+00	-4.99430E+00
-2.53137E-01	3.19709E-01	1.86204E+00	-4.96961E+00
-5.17318E-02	2.84714E-01	1.86207E+00	-4.94520E+00
5.30467E-02	1.64474E-01	1.86208E+00	-4.92153E+00
4.38684E-02	4.13663E-02	1.86157E+00	-4.89798E+00
-4.39562E-02	-1.44260E-02	1.86111E+00	-4.87432E+00
-1.42409E-01	2.75006E-02	1.86083E+00	-4.85080E+00
-1.82001E-01	1.48053E-01	1.86063E+00	-4.82755E+00
-1.21547E-01	2.89284E-01	1.86046E+00	-4.80454E+00
3.49385E-02	3.80030E-01	1.86030E+00	-4.78177E+00
2.40106E-01	3.65791E-01	1.86014E+00	-4.75927E+00
4.22102E-01	2.31090E-01	1.85989E+00	-4.73698E+00
5.12550E-01	6.12735E-03	1.85957E+00	-4.71486E+00
4.72525E-01	-2.44152E-01	1.85924E+00	-4.69281E+00
3.06883E-01	-4.43776E-01	1.85898E+00	-4.67092E+00
6.21614E-02	-5.32686E-01	1.85875E+00	-4.64922E+00
-1.90416E-01	-4.87110E-01	1.85855E+00	-4.62768E+00
-3.79941E-01	-3.26111E-01	1.85841E+00	-4.60638E+00
-4.59175E-01	-1.02896E-01	1.85821E+00	-4.58531E+00
-4.18307E-01	1.15063E-01	1.85796E+00	-4.56437E+00
-2.84763E-01	2.69202E-01	1.85775E+00	-4.54356E+00
-1.10314E-01	3.27914E-01	1.85757E+00	-4.52296E+00
4.87243E-02	2.93477E-01	1.85735E+00	-4.50252E+00
1.50648E-01	1.96658E-01	1.85714E+00	-4.48224E+00
1.80069E-01	8.20964E-02	1.85691E+00	-4.46209E+00
1.48856E-01	-9.24012E-03	1.85673E+00	-4.44209E+00
8.72215E-02	-5.37887E-02	1.85656E+00	-4.42226E+00
2.94657E-02	-5.08623E-02	1.85642E+00	-4.40263E+00
2.73131E-04	-1.88083E-02	1.85620E+00	-4.38318E+00
6.67648E-03	1.55060E-02	1.85596E+00	-4.36383E+00
3.79959E-02	2.90244E-02	1.85575E+00	-4.34456E+00
7.28126E-02	1.16836E-02	1.85560E+00	-4.32546E+00
8.94051E-02	-3.07765E-02	1.85548E+00	-4.30653E+00
7.51260E-02	-8.07233E-02	1.85536E+00	-4.28782E+00
3.11393E-02	-1.16995E-01	1.85513E+00	-4.26927E+00
-2.88812E-02	-1.23908E-01	1.85488E+00	-4.25078E+00
-8.49670E-02	-9.72651E-02	1.85465E+00	-4.23236E+00
-1.18981E-01	-4.53101E-02	1.85448E+00	-4.21405E+00
-1.21325E-01	1.52397E-02	1.85442E+00	-4.19589E+00
-9.37167E-02	6.60216E-02	1.85441E+00	-4.17801E+00
-4.74096E-02	9.37090E-02	1.85424E+00	-4.16037E+00
1.90217E-03	9.40411E-02	1.85395E+00	-4.14275E+00
4.01225E-02	7.19537E-02	1.85367E+00	-4.12519E+00
5.92788E-02	3.83168E-02	1.85339E+00	-4.10761E+00
5.89915E-02	5.07311E-03	1.85332E+00	-4.09010E+00
4.48634E-02	-1.90676E-02	1.85338E+00	-4.07291E+00
2.49655E-02	-3.07592E-02	1.85333E+00	-4.05600E+00
6.24045E-03	-3.15395E-02	1.85316E+00	-4.03923E+00
-7.61821E-03	-2.54892E-02	1.85281E+00	-4.02250E+00
-1.62009E-02	-1.65121E-02	1.85250E+00	-4.00567E+00
-2.07761E-02	-6.62938E-03	1.85238E+00	-3.98889E+00
-2.22504E-02	4.01683E-03	1.85237E+00	-3.97237E+00
-1.99711E-02	1.57502E-02	1.85231E+00	-3.95604E+00
-1.20753E-02	2.75724E-02	1.85224E+00	-3.93988E+00
2.82642E-03	3.62493E-02	1.85204E+00	-3.92384E+00
2.36319E-02	3.70006E-02	1.85182E+00	-3.90780E+00
4.56621E-02	2.56636E-02	1.85168E+00	-3.89182E+00
6.13877E-02	1.34298E-03	1.85158E+00	-3.87600E+00
6.29748E-02	-3.18384E-02	1.85146E+00	-3.86032E+00
4.57096E-02	-6.49935E-02	1.85130E+00	-3.84473E+00
1.07761E-02	-8.70097E-02	1.85117E+00	-3.82918E+00
-3.39758E-02	-8.85366E-02	1.85110E+00	-3.81378E+00
-7.59606E-02	-6.59234E-02	1.85103E+00	-3.79852E+00
-1.01962E-01	-2.33552E-02	1.85094E+00	-3.78340E+00
-1.02942E-01	2.78768E-02	1.85078E+00	-3.76837E+00
-7.76358E-02	7.29309E-02	1.85059E+00	-3.75339E+00
-3.34167E-02	9.85658E-02	1.85046E+00	-3.73845E+00
1.61212E-02	9.79382E-02	1.85034E+00	-3.72365E+00
5.59668E-02	7.30956E-02	1.85022E+00	-3.70890E+00
7.51651E-02	3.41595E-02	1.85018E+00	-3.69426E+00
7.07502E-02	-4.60891E-03	1.85015E+00	-3.67979E+00
4.85784E-02	-3.03357E-02	1.85006E+00	-3.66544E+00
2.06878E-02	-3.64782E-02	1.84997E+00	-3.65114E+00
2.07448E-04	-2.51990E-02	1.84988E+00	-3.63700E+00
-4.15931E-03	-6.18477E-03	1.84974E+00	-3.62293E+00
8.18514E-03	7.64992E-03	1.84948E+00	-3.60894E+00
2.93892E-02	5.86340E-03	1.84930E+00	-3.59488E+00
4.63835E-02	-1.47173E-02	1.84916E+00	-3.58086E+00
4.64407E-02	-4.81028E-02	1.84926E+00	-3.56696E+00
2.28602E-02	-8.10168E-02	1.84934E+00	-3.55335E+00
-2.15292E-02	-9.79122E-02	1.84926E+00	-3.54009E+00
-7.45422E-02	-8.72325E-02	1.84878E+00	-3.52659E+00
-1.18590E-01	-4.64581E-02	1.84857E+00	-3.51291E+00
-1.36935E-01	1.60482E-02	1.84853E+00	-3.49932E+00
-1.20015E-01	8.32636E-02	1.84868E+00	-3.48597E+00
-6.93646E-02	1.35049E-01	1.84882E+00	-3.47286E+00
2.36085E-03	1.55030E-01	1.84874E+00	-3.46013E+00
7.53318E-02	1.36295E-01	1.84831E+00	-3.44721E+00
1.29049E-01	8.38543E-02	1.84794E+00	-3.43409E+00
1.49097E-01	1.29254E-02	1.84780E+00	-3.42087E+00
1.31654E-01	-5.61833E-02	1.84797E+00	-3.40780E+00
8.43373E-02	-1.04828E-01	1.84825E+00	-3.39520E+00
2.31152E-02	-1.21921E-01	1.84813E+00	-3.38286E+00
-3.34371E-02	-1.06947E-01	1.84786E+00	-3.37035E+00
-7.03812E-02	-6.92076E-02	1.84765E+00	-3.35779E+00
-8.09435E-02	-2.37714E-02	1.84748E+00	-3.34524E+00
-6.78477E-02	1.42325E-02	1.84744E+00	-3.33273E+00
-4.11909E-02	3.47708E-02	1.84749E+00	-3.32037E+00
-1.39342E-02	3.57857E-02	1.84754E+00	-3.30821E+00
3.20035E-03	2.28837E-02	1.84749E+00	-3.29618E+00
5.49525E-03	6.23521E-03	1.84734E+00	-3.28422E+00
-4.61209E-03	-3.94427E-03	1.84711E+00	-3.27220E+00
-1.92114E-02	-1.53322E-03	1.84699E+00	-3.26017E+00
-2.85873E-02	1.32554E-02	1.84691E+00	-3.24823E+00
-2.53504E-02	3.42465E-02	1.84685E+00	-3.23639E+00
-7.45326E-03	5.19527E-02	1.84679E+00	-3.22462E+00
2.09616E-02	5.73980E-02	1.84673E+00	-3.21292E+00
5.10676E-02	4.56212E-02	1.84669E+00	-3.20129E+00
7.25340E-02	1.76185E-02	1.84664E+00	-3.18979E+00
7.71582E-02	-1.98755E-02	1.84653E+00	-3.17831E+00
6.16752E-02	-5.65577E-02	1.84644E+00	-3.16689E+00
2.88428E-02	-8.18471E-02	1.84631E+00	-3.15552E+00
-1.33908E-02	-8.81003E-02	1.84622E+00	-3.14416E+00
