jMRUI Data Textfile
 
Filename: Glc.txt
 
PointsInDataset: 2048
DatasetsInFile: 1
SamplingInterval: 5.00000E-01
ZeroOrderPhase: 0E0
BeginTime: 0E0
TransmitterFrequency: 1.27740E+08
MagneticField: 0E0
TypeOfNucleus: 0E0
NameOfPatient: 
DateOfExperiment: 
Spectrometer: Vespa-Simulation
AdditionalInfo: see 'readme' file for Vespa-Simulation output synopsis
 
  
Signal and FFT 
sig(real)	sig(imag)	fft(real)	fft(imag)
Signal 1 out of 1 in file
6.68735E+00	-7.87732E-03	1.93634E+01	-4.44448E+01
6.01302E+00	-2.65786E+00	1.55942E+01	-4.12003E+01
4.20754E+00	-4.67324E+00	1.30200E+01	-3.84508E+01
1.72094E+00	-5.60445E+00	1.11816E+01	-3.61155E+01
-8.43496E-01	-5.28142E+00	9.83597E+00	-3.41074E+01
-2.88810E+00	-3.84778E+00	8.85228E+00	-3.23922E+01
-3.97279E+00	-1.71117E+00	8.07688E+00	-3.09477E+01
-3.91911E+00	5.73718E-01	7.42816E+00	-2.96749E+01
-2.84040E+00	2.45500E+00	6.89441E+00	-2.85279E+01
-1.09351E+00	3.52426E+00	6.46370E+00	-2.74878E+01
8.30601E-01	3.61060E+00	6.12420E+00	-2.65500E+01
2.44406E+00	2.80540E+00	5.85358E+00	-2.57216E+01
3.38819E+00	1.41585E+00	5.60863E+00	-2.49846E+01
3.51522E+00	-1.35305E-01	5.38617E+00	-2.43041E+01
2.90660E+00	-1.43233E+00	5.19274E+00	-2.36714E+01
1.82820E+00	-2.17642E+00	5.02630E+00	-2.30877E+01
6.39663E-01	-2.25387E+00	4.87607E+00	-2.25481E+01
-3.13070E-01	-1.74760E+00	4.73862E+00	-2.20430E+01
-7.91408E-01	-8.93849E-01	4.61451E+00	-2.15667E+01
-7.19252E-01	-8.82913E-04	4.50142E+00	-2.11170E+01
-1.88089E-01	6.44283E-01	4.39735E+00	-2.06860E+01
5.84550E-01	8.54584E-01	4.31405E+00	-2.02692E+01
1.32760E+00	5.86711E-01	4.24721E+00	-1.98826E+01
1.79714E+00	-5.85644E-02	4.18351E+00	-1.95158E+01
1.84251E+00	-8.75515E-01	4.14004E+00	-1.91567E+01
1.44159E+00	-1.61769E+00	4.11718E+00	-1.88383E+01
6.98578E-01	-2.06775E+00	4.08328E+00	-1.85510E+01
-1.91336E-01	-2.09394E+00	4.03872E+00	-1.82746E+01
-9.98122E-01	-1.67987E+00	3.99669E+00	-1.80029E+01
-1.51756E+00	-9.22747E-01	3.95716E+00	-1.77465E+01
-1.62083E+00	-3.31040E-03	3.90658E+00	-1.74946E+01
-1.28200E+00	8.61962E-01	3.86796E+00	-1.72268E+01
-5.79231E-01	1.47367E+00	3.86055E+00	-1.69794E+01
3.28001E-01	1.69443E+00	3.85036E+00	-1.67601E+01
1.23835E+00	1.47680E+00	3.83358E+00	-1.65518E+01
1.95420E+00	8.69701E-01	3.81441E+00	-1.63503E+01
2.32389E+00	4.08006E-03	3.79495E+00	-1.61548E+01
2.27164E+00	-9.37622E-01	3.77599E+00	-1.59652E+01
1.81088E+00	-1.76070E+00	3.75782E+00	-1.57812E+01
1.03895E+00	-2.29856E+00	3.74063E+00	-1.56027E+01
1.15664E-01	-2.44588E+00	3.72434E+00	-1.54295E+01
-7.70468E-01	-2.17922E+00	3.70894E+00	-1.52614E+01
-1.44089E+00	-1.56103E+00	3.69439E+00	-1.50980E+01
-1.76411E+00	-7.26266E-01	3.68070E+00	-1.49393E+01
-1.68310E+00	1.45701E-01	3.66778E+00	-1.47849E+01
-1.22786E+00	8.69300E-01	3.65562E+00	-1.46347E+01
-5.09452E-01	1.29276E+00	3.64408E+00	-1.44886E+01
3.03789E-01	1.33204E+00	3.63315E+00	-1.43463E+01
1.02363E+00	9.90375E-01	3.62285E+00	-1.42076E+01
1.48485E+00	3.58392E-01	3.61308E+00	-1.40724E+01
1.58417E+00	-4.06246E-01	3.60376E+00	-1.39405E+01
1.30532E+00	-1.11566E+00	3.59496E+00	-1.38118E+01
7.23639E-01	-1.59711E+00	3.58663E+00	-1.36861E+01
-1.17950E-02	-1.73539E+00	3.57874E+00	-1.35634E+01
-7.15026E-01	-1.50188E+00	3.57118E+00	-1.34436E+01
-1.20989E+00	-9.62131E-01	3.56398E+00	-1.33263E+01
-1.37517E+00	-2.59230E-01	3.55714E+00	-1.32117E+01
-1.17580E+00	4.22899E-01	3.55060E+00	-1.30995E+01
-6.72067E-01	9.07506E-01	3.54433E+00	-1.29898E+01
-3.60987E-03	1.07131E+00	3.53833E+00	-1.28823E+01
6.47561E-01	8.76909E-01	3.53259E+00	-1.27769E+01
1.10560E+00	3.82472E-01	3.52715E+00	-1.26737E+01
1.24758E+00	-2.74186E-01	3.52195E+00	-1.25725E+01
1.03612E+00	-9.12925E-01	3.51698E+00	-1.24734E+01
5.28788E-01	-1.35969E+00	3.51225E+00	-1.23761E+01
-1.37961E-01	-1.49320E+00	3.50771E+00	-1.22807E+01
-7.86253E-01	-1.27692E+00	3.50323E+00	-1.21871E+01
-1.24464E+00	-7.67982E-01	3.49893E+00	-1.20951E+01
-1.39401E+00	-1.00801E-01	3.49489E+00	-1.20048E+01
-1.19868E+00	5.49860E-01	3.49107E+00	-1.19161E+01
-7.14566E-01	1.01620E+00	3.48734E+00	-1.18290E+01
-7.27570E-02	1.18163E+00	3.48375E+00	-1.17433E+01
5.56628E-01	1.01090E+00	3.48031E+00	-1.16592E+01
1.01036E+00	5.57556E-01	3.47696E+00	-1.15765E+01
1.17478E+00	-5.21364E-02	3.47365E+00	-1.14951E+01
1.01455E+00	-6.54197E-01	3.47046E+00	-1.14150E+01
5.79841E-01	-1.09089E+00	3.46747E+00	-1.13361E+01
-9.34025E-03	-1.25183E+00	3.46468E+00	-1.12585E+01
-5.96329E-01	-1.10118E+00	3.46195E+00	-1.11821E+01
-1.02974E+00	-6.84722E-01	3.45937E+00	-1.11070E+01
-1.20250E+00	-1.15288E-01	3.45687E+00	-1.10331E+01
-1.07799E+00	4.58765E-01	3.45439E+00	-1.09604E+01
-6.96919E-01	8.92871E-01	3.45186E+00	-1.08887E+01
-1.64176E-01	1.08338E+00	3.44936E+00	-1.08180E+01
3.80623E-01	9.92611E-01	3.44696E+00	-1.07481E+01
8.00018E-01	6.55945E-01	3.44479E+00	-1.06793E+01
9.93848E-01	1.70021E-01	3.44273E+00	-1.06114E+01
9.23359E-01	-3.34280E-01	3.44077E+00	-1.05446E+01
6.18685E-01	-7.26632E-01	3.43894E+00	-1.04787E+01
1.68537E-01	-9.10296E-01	3.43718E+00	-1.04138E+01
-3.04617E-01	-8.45585E-01	3.43538E+00	-1.03499E+01
-6.76985E-01	-5.57832E-01	3.43352E+00	-1.02869E+01
-8.55087E-01	-1.28519E-01	3.43163E+00	-1.02246E+01
-7.98395E-01	3.27369E-01	3.42980E+00	-1.01630E+01
-5.27973E-01	6.91795E-01	3.42812E+00	-1.01022E+01
-1.19057E-01	8.73901E-01	3.42654E+00	-1.00422E+01
3.19673E-01	8.32251E-01	3.42498E+00	-9.98295E+00
6.74790E-01	5.84073E-01	3.42349E+00	-9.92446E+00
8.57137E-01	1.99346E-01	3.42206E+00	-9.86675E+00
8.23990E-01	-2.18380E-01	3.42062E+00	-9.80978E+00
5.88864E-01	-5.58950E-01	3.41914E+00	-9.75348E+00
2.17005E-01	-7.33811E-01	3.41769E+00	-9.69771E+00
-1.92076E-01	-6.98067E-01	3.41646E+00	-9.64253E+00
-5.30419E-01	-4.61111E-01	3.41543E+00	-9.58816E+00
-7.08837E-01	-8.34335E-02	3.41435E+00	-9.53459E+00
-6.79133E-01	3.39262E-01	3.41324E+00	-9.48168E+00
-4.45527E-01	7.00555E-01	3.41210E+00	-9.42945E+00
-6.28946E-02	9.09806E-01	3.41086E+00	-9.37785E+00
3.77562E-01	9.14418E-01	3.40946E+00	-9.32672E+00
7.71309E-01	7.12171E-01	3.40809E+00	-9.27589E+00
1.02637E+00	3.50791E-01	3.40703E+00	-9.22552E+00
1.08533E+00	-8.45808E-02	3.40613E+00	-9.17594E+00
9.38497E-01	-4.92905E-01	3.40501E+00	-9.12698E+00
6.25034E-01	-7.81989E-01	3.40389E+00	-9.07829E+00
2.21970E-01	-8.90422E-01	3.40308E+00	-9.03001E+00
-1.75397E-01	-8.01127E-01	3.40251E+00	-8.98251E+00
-4.77026E-01	-5.43849E-01	3.40184E+00	-8.93575E+00
-6.19477E-01	-1.86005E-01	3.40104E+00	-8.88952E+00
-5.79753E-01	1.85154E-01	3.40017E+00	-8.84380E+00
-3.78834E-01	4.84527E-01	3.39918E+00	-8.79848E+00
-7.42023E-02	6.49580E-01	3.39818E+00	-8.75358E+00
2.56344E-01	6.54256E-01	3.39711E+00	-8.70898E+00
5.34973E-01	5.13103E-01	3.39615E+00	-8.66471E+00
7.03262E-01	2.75097E-01	3.39535E+00	-8.62082E+00
7.35726E-01	9.04875E-03	3.39469E+00	-8.57742E+00
6.44306E-01	-2.15492E-01	3.39410E+00	-8.53454E+00
4.72942E-01	-3.46500E-01	3.39351E+00	-8.49221E+00
2.83971E-01	-3.62627E-01	3.39283E+00	-8.45030E+00
1.40030E-01	-2.77655E-01	3.39214E+00	-8.40879E+00
8.63171E-02	-1.35373E-01	3.39142E+00	-8.36763E+00
1.37827E-01	3.69732E-03	3.39073E+00	-8.32687E+00
2.75084E-01	8.01807E-02	3.39001E+00	-8.28641E+00
4.49349E-01	5.35611E-02	3.38943E+00	-8.24630E+00
5.96223E-01	-8.50076E-02	3.38893E+00	-8.20665E+00
6.54101E-01	-3.08379E-01	3.38840E+00	-8.16749E+00
5.82663E-01	-5.59014E-01	3.38776E+00	-8.12871E+00
3.76415E-01	-7.63398E-01	3.38703E+00	-8.09023E+00
6.94322E-02	-8.51784E-01	3.38628E+00	-8.05196E+00
-2.70683E-01	-7.78294E-01	3.38567E+00	-8.01397E+00
-5.58001E-01	-5.35849E-01	3.38508E+00	-7.97638E+00
-7.09953E-01	-1.61897E-01	3.38448E+00	-7.93906E+00
-6.69530E-01	2.67388E-01	3.38397E+00	-7.90200E+00
-4.22414E-01	6.53520E-01	3.38362E+00	-7.86531E+00
-4.17661E-03	8.99079E-01	3.38330E+00	-7.82910E+00
5.04870E-01	9.32395E-01	3.38289E+00	-7.79331E+00
9.96845E-01	7.27046E-01	3.38234E+00	-7.75777E+00
1.36090E+00	3.11077E-01	3.38187E+00	-7.72245E+00
1.51027E+00	-2.37149E-01	3.38142E+00	-7.68749E+00
1.40415E+00	-8.05880E-01	3.38090E+00	-7.65285E+00
1.05884E+00	-1.27582E+00	3.38030E+00	-7.61835E+00
5.44954E-01	-1.54847E+00	3.37997E+00	-7.58409E+00
-2.88289E-02	-1.56983E+00	3.37961E+00	-7.55039E+00
-5.42069E-01	-1.34314E+00	3.37896E+00	-7.51689E+00
-8.90941E-01	-9.27330E-01	3.37841E+00	-7.48343E+00
-1.01297E+00	-4.21637E-01	3.37797E+00	-7.45023E+00
-9.00520E-01	5.96575E-02	3.37764E+00	-7.41733E+00
-6.00082E-01	4.15609E-01	3.37731E+00	-7.38479E+00
-1.97811E-01	5.82525E-01	3.37689E+00	-7.35245E+00
2.04537E-01	5.47194E-01	3.37667E+00	-7.32024E+00
5.16434E-01	3.46251E-01	3.37661E+00	-7.28856E+00
6.80912E-01	5.22394E-02	3.37637E+00	-7.25731E+00
6.86110E-01	-2.48865E-01	3.37601E+00	-7.22628E+00
5.63828E-01	-4.82385E-01	3.37550E+00	-7.19551E+00
3.75770E-01	-6.04540E-01	3.37484E+00	-7.16479E+00
1.92282E-01	-6.11639E-01	3.37424E+00	-7.13407E+00
7.01789E-02	-5.36732E-01	3.37390E+00	-7.10347E+00
3.63257E-02	-4.35399E-01	3.37376E+00	-7.07332E+00
8.15103E-02	-3.65543E-01	3.37346E+00	-7.04355E+00
1.66273E-01	-3.67653E-01	3.37301E+00	-7.01395E+00
2.35944E-01	-4.51628E-01	3.37259E+00	-6.98434E+00
2.40161E-01	-5.94018E-01	3.37241E+00	-6.95493E+00
1.50446E-01	-7.46170E-01	3.37232E+00	-6.92592E+00
-2.95853E-02	-8.50426E-01	3.37218E+00	-6.89722E+00
-2.64349E-01	-8.59077E-01	3.37198E+00	-6.86880E+00
-4.96715E-01	-7.50083E-01	3.37169E+00	-6.84062E+00
-6.64675E-01	-5.34882E-01	3.37129E+00	-6.81261E+00
-7.19843E-01	-2.56001E-01	3.37083E+00	-6.78470E+00
-6.41564E-01	2.44874E-02	3.37042E+00	-6.75684E+00
-4.42858E-01	2.41967E-01	3.37012E+00	-6.72915E+00
-1.66727E-01	3.46565E-01	3.36989E+00	-6.70173E+00
1.25651E-01	3.15743E-01	3.36964E+00	-6.67452E+00
3.71007E-01	1.58922E-01	3.36939E+00	-6.64750E+00
5.19652E-01	-8.66936E-02	3.36916E+00	-6.62065E+00
5.46226E-01	-3.67001E-01	3.36896E+00	-6.59400E+00
4.53380E-01	-6.25206E-01	3.36879E+00	-6.56752E+00
2.67983E-01	-8.15011E-01	3.36867E+00	-6.54131E+00
3.19348E-02	-9.09428E-01	3.36849E+00	-6.51535E+00
-2.09151E-01	-9.03562E-01	3.36822E+00	-6.48955E+00
-4.16020E-01	-8.11716E-01	3.36794E+00	-6.46386E+00
-5.62446E-01	-6.60610E-01	3.36768E+00	-6.43831E+00
