jMRUI Data Textfile
 
Filename: Gln.txt
 
PointsInDataset: 2048
DatasetsInFile: 1
SamplingInterval: 5.00000E-01
ZeroOrderPhase: 0E0
BeginTime: 0E0
TransmitterFrequency: 1.27740E+08
MagneticField: 0E0
TypeOfNucleus: 0E0
NameOfPatient: 
DateOfExperiment: 
Spectrometer: Vespa-Simulation
AdditionalInfo: see 'readme' file for Vespa-Simulation output synopsis
 
  
Signal and FFT 
sig(real)	sig(imag)	fft(real)	fft(imag)
Signal 1 out of 1 in file
6.64855E+00	-1.45232E-02	3.37131E+00	-3.99640E+00
4.00417E+00	-1.78386E+00	3.37032E+00	-3.95735E+00
-1.49115E+00	-2.34009E+00	3.36924E+00	-3.91836E+00
-5.00787E+00	-1.33920E+00	3.36828E+00	-3.87944E+00
-3.77735E+00	3.68848E-01	3.36757E+00	-3.84074E+00
5.40562E-01	1.30081E+00	3.36706E+00	-3.80241E+00
3.72441E+00	5.46432E-01	3.36669E+00	-3.76456E+00
3.03545E+00	-1.30273E+00	3.36625E+00	-3.72715E+00
-5.13496E-01	-2.46794E+00	3.36574E+00	-3.69011E+00
-3.55822E+00	-1.52840E+00	3.36510E+00	-3.65328E+00
-3.68514E+00	1.10274E+00	3.36444E+00	-3.61670E+00
-1.33040E+00	3.29601E+00	3.36383E+00	-3.58024E+00
1.20392E+00	3.06652E+00	3.36321E+00	-3.54406E+00
2.14197E+00	5.25371E-01	3.36269E+00	-3.50805E+00
1.53403E+00	-2.05810E+00	3.36225E+00	-3.47230E+00
5.54789E-01	-2.33252E+00	3.36191E+00	-3.43685E+00
4.09115E-02	-1.43149E-01	3.36154E+00	-3.40177E+00
-6.91004E-02	2.27308E+00	3.36106E+00	-3.36693E+00
-1.29135E-01	2.45327E+00	3.36053E+00	-3.33227E+00
-1.06491E-01	1.15905E-01	3.35998E+00	-3.29773E+00
2.63275E-01	-2.59518E+00	3.35947E+00	-3.26334E+00
8.34709E-01	-3.24911E+00	3.35905E+00	-3.22909E+00
9.34582E-01	-1.45584E+00	3.35871E+00	-3.19504E+00
7.50060E-02	9.34804E-01	3.35851E+00	-3.16126E+00
-1.32371E+00	1.82401E+00	3.35831E+00	-3.12780E+00
-2.14729E+00	8.81890E-01	3.35798E+00	-3.09465E+00
-1.63227E+00	-4.35690E-01	3.35760E+00	-3.06160E+00
-1.49131E-01	-6.62179E-01	3.35708E+00	-3.02868E+00
1.12518E+00	1.73261E-01	3.35661E+00	-2.99575E+00
1.30365E+00	8.74670E-01	3.35633E+00	-2.96291E+00
5.26226E-01	6.54906E-01	3.35616E+00	-2.93038E+00
-3.34612E-01	2.76735E-02	3.35594E+00	-2.89808E+00
-5.61565E-01	1.53361E-02	3.35571E+00	-2.86599E+00
-1.27843E-01	7.17078E-01	3.35544E+00	-2.83402E+00
5.15080E-01	1.04584E+00	3.35510E+00	-2.80228E+00
9.50310E-01	4.28137E-02	3.35465E+00	-2.77049E+00
1.00807E+00	-1.75281E+00	3.35432E+00	-2.73878E+00
6.40606E-01	-2.59441E+00	3.35406E+00	-2.70711E+00
-1.31378E-01	-1.35090E+00	3.35396E+00	-2.67562E+00
-1.03759E+00	1.08998E+00	3.35400E+00	-2.64437E+00
-1.50127E+00	2.49074E+00	3.35392E+00	-2.61355E+00
-1.05262E+00	1.46547E+00	3.35352E+00	-2.58275E+00
8.49725E-02	-1.04301E+00	3.35317E+00	-2.55182E+00
9.74702E-01	-2.60101E+00	3.35291E+00	-2.52101E+00
7.74875E-01	-1.64502E+00	3.35266E+00	-2.49023E+00
-3.47745E-01	1.00444E+00	3.35256E+00	-2.45949E+00
-1.24205E+00	2.96568E+00	3.35264E+00	-2.42903E+00
-8.81771E-01	2.56893E+00	3.35257E+00	-2.39885E+00
5.24444E-01	3.14245E-01	3.35238E+00	-2.36870E+00
1.65230E+00	-1.79214E+00	3.35217E+00	-2.33860E+00
1.39364E+00	-2.17071E+00	3.35193E+00	-2.30855E+00
3.17059E-02	-9.23593E-01	3.35173E+00	-2.27850E+00
-1.02998E+00	6.04359E-01	3.35157E+00	-2.24852E+00
-7.50427E-01	1.21644E+00	3.35146E+00	-2.21860E+00
4.32884E-01	7.46996E-01	3.35140E+00	-2.18877E+00
1.08428E+00	-1.81702E-01	3.35141E+00	-2.15905E+00
3.52430E-01	-9.16091E-01	3.35139E+00	-2.12952E+00
-1.06527E+00	-1.16110E+00	3.35132E+00	-2.10003E+00
-1.65070E+00	-8.56807E-01	3.35119E+00	-2.07065E+00
-7.15308E-01	-4.39559E-02	3.35102E+00	-2.04124E+00
8.22472E-01	9.87572E-01	3.35083E+00	-2.01181E+00
1.39341E+00	1.60595E+00	3.35076E+00	-1.98238E+00
4.44691E-01	1.22710E+00	3.35076E+00	-1.95301E+00
-9.76455E-01	-3.78115E-02	3.35084E+00	-1.92380E+00
-1.34004E+00	-1.24230E+00	3.35083E+00	-1.89471E+00
-2.38202E-01	-1.35014E+00	3.35078E+00	-1.86569E+00
1.22604E+00	-2.45036E-01	3.35061E+00	-1.83661E+00
1.62645E+00	1.06237E+00	3.35054E+00	-1.80754E+00
6.62027E-01	1.35460E+00	3.35046E+00	-1.77848E+00
-6.45844E-01	3.78031E-01	3.35037E+00	-1.74945E+00
-1.10473E+00	-9.33734E-01	3.35036E+00	-1.72037E+00
-5.32343E-01	-1.41133E+00	3.35038E+00	-1.69139E+00
2.50708E-01	-7.73496E-01	3.35043E+00	-1.66247E+00
4.44626E-01	2.24849E-01	3.35037E+00	-1.63359E+00
7.77886E-02	6.82802E-01	3.35035E+00	-1.60465E+00
-2.38019E-01	4.49225E-01	3.35037E+00	-1.57568E+00
-1.58106E-01	8.43434E-02	3.35044E+00	-1.54683E+00
2.37969E-02	6.37454E-02	3.35046E+00	-1.51794E+00
-1.17230E-01	2.30970E-01	3.35052E+00	-1.48906E+00
-4.67096E-01	1.20769E-01	3.35062E+00	-1.46020E+00
-4.43416E-01	-3.17916E-01	3.35072E+00	-1.43144E+00
2.34588E-01	-5.54766E-01	3.35070E+00	-1.40268E+00
1.03543E+00	-1.26064E-01	3.35064E+00	-1.37387E+00
1.07805E+00	6.79799E-01	3.35056E+00	-1.34495E+00
1.29950E-01	9.94131E-01	3.35051E+00	-1.31599E+00
-1.00280E+00	3.07998E-01	3.35051E+00	-1.28695E+00
-1.22383E+00	-8.61983E-01	3.35056E+00	-1.25789E+00
-2.87280E-01	-1.40102E+00	3.35071E+00	-1.22875E+00
9.04852E-01	-7.34044E-01	3.35099E+00	-1.19971E+00
1.20137E+00	5.41207E-01	3.35127E+00	-1.17082E+00
3.56121E-01	1.23656E+00	3.35131E+00	-1.14203E+00
-7.71442E-01	7.69573E-01	3.35119E+00	-1.11290E+00
-1.13715E+00	-2.91830E-01	3.35140E+00	-1.08363E+00
-5.36870E-01	-8.82800E-01	3.35167E+00	-1.05466E+00
3.20919E-01	-5.44781E-01	3.35166E+00	-1.02568E+00
6.58838E-01	2.06065E-01	3.35153E+00	-9.96481E-01
3.93779E-01	5.60671E-01	3.35149E+00	-9.67102E-01
3.14208E-02	3.06644E-01	3.35144E+00	-9.37588E-01
-4.37594E-02	-6.68298E-02	3.35161E+00	-9.07935E-01
2.40049E-02	-7.23141E-02	3.35187E+00	-8.78343E-01
-1.02700E-01	1.68724E-01	3.35224E+00	-8.48808E-01
-3.85754E-01	1.42767E-01	3.35239E+00	-8.19372E-01
-3.90750E-01	-3.17518E-01	3.35252E+00	-7.89674E-01
1.22730E-01	-7.19762E-01	3.35279E+00	-7.60031E-01
7.49957E-01	-4.59974E-01	3.35282E+00	-7.30328E-01
7.72909E-01	3.89744E-01	3.35292E+00	-7.00364E-01
-1.70358E-02	1.02065E+00	3.35311E+00	-6.70385E-01
-9.55363E-01	7.14344E-01	3.35317E+00	-6.40239E-01
-1.10565E+00	-3.29641E-01	3.35364E+00	-6.09984E-01
-2.43243E-01	-1.11797E+00	3.35389E+00	-5.80077E-01
8.50750E-01	-8.63428E-01	3.35372E+00	-5.49787E-01
1.14970E+00	1.95867E-01	3.35404E+00	-5.19075E-01
4.13341E-01	1.03958E+00	3.35430E+00	-4.88825E-01
-5.97899E-01	9.06024E-01	3.35412E+00	-4.58089E-01
-9.32969E-01	2.09544E-02	3.35447E+00	-4.26905E-01
-3.97581E-01	-7.20720E-01	3.35504E+00	-3.96199E-01
3.51485E-01	-7.07790E-01	3.35507E+00	-3.65395E-01
5.85864E-01	-1.52740E-01	3.35528E+00	-3.34116E-01
2.47394E-01	2.88881E-01	3.35559E+00	-3.02928E-01
-1.33434E-01	2.84216E-01	3.35577E+00	-2.71582E-01
-1.45402E-01	8.35233E-02	3.35593E+00	-2.40010E-01
4.93018E-02	6.26545E-02	3.35624E+00	-2.08230E-01
2.12689E-02	1.94110E-01	3.35658E+00	-1.76453E-01
-2.95353E-01	1.21451E-01	3.35687E+00	-1.44501E-01
-4.64593E-01	-2.82474E-01	3.35716E+00	-1.12438E-01
-9.99853E-02	-6.22087E-01	3.35746E+00	-8.02001E-02
5.65450E-01	-3.89546E-01	3.35763E+00	-4.78288E-02
8.29152E-01	3.66552E-01	3.35786E+00	-1.51218E-02
2.90811E-01	9.45569E-01	3.35815E+00	1.77389E-02
-6.21024E-01	6.86629E-01	3.35852E+00	5.07741E-02
-1.01626E+00	-2.72918E-01	3.35885E+00	8.39311E-02
-4.62127E-01	-1.04706E+00	3.35927E+00	1.17354E-01
5.35568E-01	-8.76213E-01	3.35972E+00	1.50811E-01
1.02834E+00	8.27179E-02	3.36008E+00	1.84408E-01
5.80597E-01	9.05737E-01	3.36025E+00	2.18244E-01
-3.24556E-01	8.41458E-01	3.36046E+00	2.52603E-01
-8.27553E-01	4.42318E-02	3.36095E+00	2.87130E-01
-5.61787E-01	-6.53902E-01	3.36147E+00	3.21680E-01
7.10780E-02	-6.37142E-01	3.36166E+00	3.56442E-01
4.33346E-01	-8.31205E-02	3.36221E+00	3.91972E-01
3.24894E-01	3.49630E-01	3.36314E+00	4.26935E-01
6.23079E-02	2.91199E-01	3.36320E+00	4.62068E-01
-2.04221E-02	-2.67931E-03	3.36339E+00	4.98228E-01
2.27413E-02	-6.98506E-02	3.36403E+00	5.34243E-01
-7.91512E-02	1.49569E-01	3.36420E+00	5.70606E-01
-3.42008E-01	2.62105E-01	3.36475E+00	6.07507E-01
-4.12230E-01	-3.19823E-02	3.36528E+00	6.44427E-01
-9.57668E-03	-4.87381E-01	3.36583E+00	6.81790E-01
6.09860E-01	-5.43271E-01	3.36666E+00	7.19326E-01
8.04457E-01	2.29054E-03	3.36714E+00	7.56709E-01
2.38882E-01	6.70237E-01	3.36736E+00	7.94948E-01
-6.49567E-01	7.55657E-01	3.36788E+00	8.33623E-01
-1.00636E+00	9.38474E-02	3.36857E+00	8.72418E-01
-4.32587E-01	-7.14855E-01	3.36891E+00	9.11622E-01
5.54439E-01	-8.96446E-01	3.36975E+00	9.51482E-01
1.00769E+00	-2.88672E-01	3.37057E+00	9.91058E-01
5.03712E-01	5.13863E-01	3.37097E+00	1.03120E+00
-4.38119E-01	7.86488E-01	3.37150E+00	1.07196E+00
-9.07368E-01	3.81531E-01	3.37207E+00	1.11315E+00
-5.26114E-01	-2.14599E-01	3.37292E+00	1.15479E+00
2.29259E-01	-4.57451E-01	3.37375E+00	1.19659E+00
6.00394E-01	-2.72276E-01	3.37457E+00	1.23882E+00
3.42750E-01	8.46486E-03	3.37523E+00	1.28134E+00
-1.12428E-01	1.18077E-01	3.37576E+00	1.32452E+00
-2.32720E-01	1.25197E-01	3.37637E+00	1.36833E+00
1.38589E-02	2.12692E-01	3.37711E+00	1.41264E+00
2.05686E-01	3.22223E-01	3.37796E+00	1.45749E+00
4.57667E-02	1.79681E-01	3.37896E+00	1.50276E+00
-2.55592E-01	-2.95858E-01	3.37998E+00	1.54841E+00
-2.53504E-01	-7.36176E-01	3.38091E+00	1.59452E+00
1.44886E-01	-6.30119E-01	3.38177E+00	1.64124E+00
5.05522E-01	7.97460E-02	3.38266E+00	1.68858E+00
3.45633E-01	8.05703E-01	3.38356E+00	1.73650E+00
-2.75685E-01	8.38227E-01	3.38446E+00	1.78510E+00
-7.55715E-01	8.69945E-02	3.38543E+00	1.83436E+00
-5.77281E-01	-7.64267E-01	3.38650E+00	1.88428E+00
1.18385E-01	-9.05600E-01	3.38765E+00	1.93479E+00
6.59161E-01	-2.02891E-01	3.38879E+00	1.98593E+00
5.42469E-01	6.78914E-01	3.38991E+00	2.03778E+00
-5.22337E-02	9.50574E-01	3.39104E+00	2.09037E+00
-4.84892E-01	4.54303E-01	3.39219E+00	2.14375E+00
-3.44909E-01	-2.66711E-01	3.39341E+00	2.19794E+00
1.50499E-01	-5.87650E-01	3.39470E+00	2.25296E+00
4.52851E-01	-3.98265E-01	3.39614E+00	2.30875E+00
2.97849E-01	-6.97829E-02	3.39758E+00	2.36526E+00
-5.56824E-02	6.18498E-02	3.39896E+00	2.42263E+00
-1.88503E-01	4.01677E-02	3.40032E+00	2.48097E+00
-2.14521E-02	9.20974E-02	3.40174E+00	2.54031E+00
1.30500E-01	2.18954E-01	3.40322E+00	2.60064E+00
-1.79334E-02	1.51237E-01	3.40478E+00	2.66197E+00
-3.48809E-01	-2.45737E-01	3.40639E+00	2.72441E+00
-4.66548E-01	-6.46867E-01	3.40818E+00	2.78789E+00
