jMRUI Data Textfile
 
Filename: Glu.txt
 
PointsInDataset: 2048
DatasetsInFile: 1
SamplingInterval: 5.00000E-01
ZeroOrderPhase: 0E0
BeginTime: 0E0
TransmitterFrequency: 1.27740E+08
MagneticField: 0E0
TypeOfNucleus: 0E0
NameOfPatient: 
DateOfExperiment: 
Spectrometer: Vespa-Simulation
AdditionalInfo: see 'readme' file for Vespa-Simulation output synopsis
 
  
Signal and FFT 
sig(real)	sig(imag)	fft(real)	fft(imag)
Signal 1 out of 1 in file
4.71110E+00	-1.48278E-02	2.39479E+00	-5.80884E+00
2.87318E+00	-3.54188E+00	2.39403E+00	-5.77746E+00
-9.41835E-01	-4.05937E+00	2.39325E+00	-5.74645E+00
-3.36465E+00	-1.34871E+00	2.39249E+00	-5.71577E+00
-2.43142E+00	1.91634E+00	2.39175E+00	-5.68545E+00
6.72585E-01	2.71317E+00	2.39099E+00	-5.65542E+00
2.82671E+00	4.57088E-01	2.39030E+00	-5.62571E+00
1.92979E+00	-2.55912E+00	2.38965E+00	-5.59633E+00
-1.19986E+00	-3.39422E+00	2.38902E+00	-5.56734E+00
-3.68895E+00	-1.18957E+00	2.38834E+00	-5.53862E+00
-3.31479E+00	2.13301E+00	2.38770E+00	-5.51019E+00
-4.77171E-01	3.73932E+00	2.38716E+00	-5.48205E+00
2.31783E+00	2.46235E+00	2.38657E+00	-5.45429E+00
2.82821E+00	-2.95352E-01	2.38599E+00	-5.42680E+00
1.01959E+00	-2.02634E+00	2.38538E+00	-5.39958E+00
-1.13272E+00	-1.43407E+00	2.38479E+00	-5.37265E+00
-1.60963E+00	5.58355E-01	2.38419E+00	-5.34593E+00
-1.44301E-01	1.88084E+00	2.38363E+00	-5.31944E+00
1.74054E+00	1.28927E+00	2.38318E+00	-5.29324E+00
2.28760E+00	-6.25297E-01	2.38272E+00	-5.26738E+00
1.07491E+00	-2.17183E+00	2.38225E+00	-5.24178E+00
-7.91682E-01	-2.16018E+00	2.38175E+00	-5.21644E+00
-1.83853E+00	-8.34680E-01	2.38120E+00	-5.19138E+00
-1.51169E+00	5.74335E-01	2.38061E+00	-5.16640E+00
-4.48320E-01	1.05616E+00	2.38015E+00	-5.14164E+00
3.14362E-01	5.94729E-01	2.37977E+00	-5.11711E+00
2.89479E-01	-7.03668E-02	2.37940E+00	-5.09296E+00
-2.09401E-01	-2.61992E-01	2.37900E+00	-5.06896E+00
-5.63535E-01	9.10225E-02	2.37860E+00	-5.04527E+00
-4.55326E-01	5.85490E-01	2.37816E+00	-5.02176E+00
-1.83340E-02	8.32359E-01	2.37770E+00	-4.99846E+00
4.49554E-01	7.45211E-01	2.37724E+00	-4.97528E+00
7.77767E-01	4.39430E-01	2.37687E+00	-4.95227E+00
9.28665E-01	1.27685E-02	2.37658E+00	-4.92953E+00
8.47600E-01	-4.80737E-01	2.37628E+00	-4.90704E+00
4.55984E-01	-8.93245E-01	2.37596E+00	-4.88480E+00
-1.65990E-01	-9.66875E-01	2.37555E+00	-4.86274E+00
-6.80388E-01	-5.67640E-01	2.37519E+00	-4.84077E+00
-7.11189E-01	6.98981E-02	2.37486E+00	-4.81906E+00
-2.33828E-01	4.37115E-01	2.37447E+00	-4.79749E+00
2.94768E-01	2.00649E-01	2.37419E+00	-4.77604E+00
2.99751E-01	-4.12339E-01	2.37394E+00	-4.75484E+00
-3.38445E-01	-7.40303E-01	2.37372E+00	-4.73390E+00
-1.07758E+00	-2.93382E-01	2.37334E+00	-4.71313E+00
-1.15437E+00	7.15410E-01	2.37305E+00	-4.69244E+00
-3.14376E-01	1.47197E+00	2.37277E+00	-4.67196E+00
8.70012E-01	1.27275E+00	2.37248E+00	-4.65171E+00
1.45305E+00	2.05154E-01	2.37212E+00	-4.63151E+00
9.65491E-01	-8.71392E-01	2.37186E+00	-4.61147E+00
-1.30354E-01	-1.07493E+00	2.37161E+00	-4.59162E+00
-8.36753E-01	-3.06865E-01	2.37137E+00	-4.57195E+00
-5.28360E-01	6.46439E-01	2.37108E+00	-4.55244E+00
4.66562E-01	8.33170E-01	2.37084E+00	-4.53306E+00
1.16296E+00	2.03764E-02	2.37057E+00	-4.51380E+00
8.29254E-01	-1.07965E+00	2.37035E+00	-4.49479E+00
-3.30049E-01	-1.45633E+00	2.37007E+00	-4.47583E+00
-1.35094E+00	-7.24736E-01	2.36981E+00	-4.45705E+00
-1.37963E+00	5.24380E-01	2.36962E+00	-4.43835E+00
-4.33089E-01	1.26212E+00	2.36938E+00	-4.41990E+00
6.39086E-01	9.41624E-01	2.36916E+00	-4.40152E+00
9.35900E-01	-4.08878E-02	2.36889E+00	-4.38331E+00
3.01307E-01	-7.44150E-01	2.36868E+00	-4.36518E+00
-5.80351E-01	-5.47236E-01	2.36844E+00	-4.34718E+00
-8.43434E-01	3.14598E-01	2.36827E+00	-4.32932E+00
-2.27049E-01	1.00686E+00	2.36809E+00	-4.31158E+00
7.20927E-01	8.73534E-01	2.36796E+00	-4.29401E+00
1.17079E+00	1.25509E-02	2.36782E+00	-4.27661E+00
7.55908E-01	-8.49629E-01	2.36762E+00	-4.25938E+00
-1.36976E-01	-1.02768E+00	2.36735E+00	-4.24224E+00
-7.55810E-01	-4.63146E-01	2.36706E+00	-4.22512E+00
-6.57156E-01	2.80886E-01	2.36687E+00	-4.20809E+00
-5.33132E-02	5.61923E-01	2.36669E+00	-4.19118E+00
4.40100E-01	2.17008E-01	2.36656E+00	-4.17440E+00
3.80020E-01	-3.49470E-01	2.36649E+00	-4.15777E+00
-1.37454E-01	-5.78286E-01	2.36639E+00	-4.14136E+00
-6.15914E-01	-2.58859E-01	2.36620E+00	-4.12507E+00
-6.29089E-01	3.22012E-01	2.36594E+00	-4.10882E+00
-1.80235E-01	6.75598E-01	2.36576E+00	-4.09263E+00
3.45647E-01	5.45983E-01	2.36554E+00	-4.07655E+00
5.47252E-01	9.61879E-02	2.36538E+00	-4.06052E+00
3.39513E-01	-2.81469E-01	2.36528E+00	-4.04463E+00
-2.35977E-02	-3.20388E-01	2.36520E+00	-4.02889E+00
-2.11624E-01	-7.78956E-02	2.36508E+00	-4.01332E+00
-1.03303E-01	1.66345E-01	2.36492E+00	-3.99780E+00
1.47362E-01	1.80950E-01	2.36476E+00	-3.98238E+00
2.85081E-01	-3.04229E-02	2.36460E+00	-3.96705E+00
1.83601E-01	-2.68047E-01	2.36442E+00	-3.95181E+00
-6.79418E-02	-3.31326E-01	2.36431E+00	-3.93658E+00
-2.69552E-01	-1.82968E-01	2.36420E+00	-3.92158E+00
-2.87162E-01	4.66270E-02	2.36410E+00	-3.90658E+00
-1.45842E-01	1.89608E-01	2.36399E+00	-3.89177E+00
1.96556E-02	1.76216E-01	2.36393E+00	-3.87696E+00
9.00974E-02	6.71606E-02	2.36379E+00	-3.86245E+00
4.89968E-02	-2.17868E-02	2.36357E+00	-3.84781E+00
-2.82395E-02	-2.17593E-02	2.36352E+00	-3.83327E+00
-5.42315E-02	4.54567E-02	2.36338E+00	-3.81895E+00
-2.20127E-03	1.03490E-01	2.36325E+00	-3.80456E+00
8.31718E-02	9.29679E-02	2.36314E+00	-3.79034E+00
1.32613E-01	1.66410E-02	2.36317E+00	-3.77613E+00
1.10094E-01	-7.13098E-02	2.36305E+00	-3.76231E+00
3.58752E-02	-1.13521E-01	2.36275E+00	-3.74824E+00
-3.65916E-02	-9.25739E-02	2.36283E+00	-3.73428E+00
-6.51299E-02	-3.74048E-02	2.36270E+00	-3.72071E+00
-4.78727E-02	6.23171E-03	2.36234E+00	-3.70686E+00
-1.68934E-02	1.35482E-02	2.36236E+00	-3.69302E+00
-6.10472E-03	-3.75407E-03	2.36248E+00	-3.67955E+00
-2.21981E-02	-1.40261E-02	2.36219E+00	-3.66625E+00
-4.23868E-02	2.74013E-03	2.36212E+00	-3.65258E+00
-3.86344E-02	3.65862E-02	2.36217E+00	-3.63946E+00
-5.33664E-03	5.78897E-02	2.36191E+00	-3.62626E+00
3.47559E-02	4.58108E-02	2.36172E+00	-3.61298E+00
5.13187E-02	8.26082E-03	2.36169E+00	-3.59980E+00
3.43362E-02	-2.51048E-02	2.36164E+00	-3.58673E+00
2.89018E-03	-3.02246E-02	2.36164E+00	-3.57382E+00
-1.34553E-02	-1.04793E-02	2.36149E+00	-3.56099E+00
-3.01168E-03	7.77899E-03	2.36142E+00	-3.54813E+00
1.71353E-02	1.90699E-03	2.36137E+00	-3.53544E+00
1.85871E-02	-2.37654E-02	2.36122E+00	-3.52282E+00
-8.96334E-03	-4.10643E-02	2.36102E+00	-3.51016E+00
-4.50066E-02	-2.54689E-02	2.36101E+00	-3.49746E+00
-5.56725E-02	1.79956E-02	2.36107E+00	-3.48507E+00
-2.59848E-02	5.61308E-02	2.36091E+00	-3.47275E+00
2.36860E-02	5.66005E-02	2.36077E+00	-3.46036E+00
5.38938E-02	1.82986E-02	2.36076E+00	-3.44796E+00
4.14384E-02	-2.60012E-02	2.36088E+00	-3.43590E+00
1.12790E-03	-3.86773E-02	2.36058E+00	-3.42394E+00
-2.72348E-02	-1.19386E-02	2.36037E+00	-3.41163E+00
-1.58084E-02	2.43525E-02	2.36054E+00	-3.39947E+00
2.43532E-02	3.01971E-02	2.36056E+00	-3.38785E+00
5.22598E-02	-6.29357E-03	2.36015E+00	-3.37593E+00
3.48518E-02	-5.56516E-02	2.36017E+00	-3.36376E+00
-2.07333E-02	-7.23333E-02	2.36045E+00	-3.35209E+00
-7.10330E-02	-3.64585E-02	2.36034E+00	-3.34077E+00
-7.41481E-02	2.63538E-02	2.35980E+00	-3.32902E+00
-2.77079E-02	6.62665E-02	2.36004E+00	-3.31704E+00
2.81260E-02	5.32757E-02	2.36017E+00	-3.30591E+00
4.62779E-02	4.14189E-03	2.35962E+00	-3.29448E+00
1.51625E-02	-3.28321E-02	2.35975E+00	-3.28264E+00
-3.08411E-02	-2.19768E-02	2.35986E+00	-3.27142E+00
-4.29166E-02	2.66290E-02	2.35991E+00	-3.26026E+00
-3.17901E-03	6.55750E-02	2.35961E+00	-3.24913E+00
5.74077E-02	5.31631E-02	2.35965E+00	-3.23777E+00
8.55077E-02	-7.54238E-03	2.35955E+00	-3.22684E+00
5.32127E-02	-6.92988E-02	2.35935E+00	-3.21565E+00
-1.56093E-02	-8.13648E-02	2.35933E+00	-3.20458E+00
-6.47502E-02	-3.46437E-02	2.35920E+00	-3.19352E+00
-5.46000E-02	2.90940E-02	2.35934E+00	-3.18244E+00
2.25673E-03	5.31367E-02	2.35949E+00	-3.17175E+00
5.10164E-02	1.62349E-02	2.35934E+00	-3.16117E+00
4.28360E-02	-4.70020E-02	2.35910E+00	-3.15036E+00
-2.02805E-02	-7.51198E-02	2.35905E+00	-3.13956E+00
-8.41885E-02	-3.46190E-02	2.35901E+00	-3.12889E+00
-8.84796E-02	4.71773E-02	2.35894E+00	-3.11825E+00
-2.12737E-02	1.02040E-01	2.35892E+00	-3.10765E+00
6.56589E-02	7.94405E-02	2.35894E+00	-3.09716E+00
9.82561E-02	-5.98980E-03	2.35883E+00	-3.08676E+00
4.53860E-02	-8.19575E-02	2.35872E+00	-3.07626E+00
-4.90255E-02	-7.91302E-02	2.35873E+00	-3.06580E+00
-9.93131E-02	5.23860E-03	2.35881E+00	-3.05547E+00
-5.28586E-02	9.84793E-02	2.35888E+00	-3.04528E+00
5.80428E-02	1.12164E-01	2.35883E+00	-3.03527E+00
1.37322E-01	2.23997E-02	2.35857E+00	-3.02515E+00
1.07563E-01	-1.01153E-01	2.35842E+00	-3.01491E+00
-1.61621E-02	-1.50033E-01	2.35834E+00	-3.00470E+00
-1.30604E-01	-7.35890E-02	2.35837E+00	-2.99453E+00
-1.31181E-01	6.80612E-02	2.35845E+00	-2.98449E+00
-9.08242E-03	1.48784E-01	2.35856E+00	-2.97460E+00
1.31042E-01	8.73315E-02	2.35854E+00	-2.96486E+00
1.57374E-01	-7.25266E-02	2.35841E+00	-2.95506E+00
3.11050E-02	-1.90504E-01	2.35827E+00	-2.94525E+00
-1.48561E-01	-1.50940E-01	2.35820E+00	-2.93540E+00
-2.23518E-01	2.78135E-02	2.35815E+00	-2.92564E+00
-1.17423E-01	1.98672E-01	2.35813E+00	-2.91589E+00
8.76276E-02	2.10605E-01	2.35814E+00	-2.90623E+00
2.14766E-01	4.67296E-02	2.35815E+00	-2.89665E+00
1.47872E-01	-1.51162E-01	2.35810E+00	-2.88712E+00
-5.80224E-02	-2.02448E-01	2.35805E+00	-2.87761E+00
-2.16566E-01	-5.11016E-02	2.35799E+00	-2.86812E+00
-1.73025E-01	1.75046E-01	2.35794E+00	-2.85866E+00
5.19036E-02	2.69923E-01	2.35790E+00	-2.84924E+00
2.70180E-01	1.32353E-01	2.35787E+00	-2.83986E+00
2.87019E-01	-1.36272E-01	2.35783E+00	-2.83053E+00
7.54305E-02	-3.12723E-01	2.35781E+00	-2.82121E+00
-1.92562E-01	-2.45553E-01	2.35781E+00	-2.81197E+00
-2.91632E-01	8.17927E-03	2.35777E+00	-2.80280E+00
-1.41022E-01	2.27910E-01	2.35768E+00	-2.79364E+00
1.20922E-01	2.21255E-01	2.35763E+00	-2.78443E+00
2.55131E-01	-4.82664E-03	2.35762E+00	-2.77533E+00
1.32119E-01	-2.46018E-01	2.35760E+00	-2.76624E+00
-1.50447E-01	-2.77428E-01	2.35757E+00	-2.75721E+00
-3.48148E-01	-5.18726E-02	2.35759E+00	-2.74818E+00
