jMRUI Data Textfile
 
Filename: GSH.txt
 
PointsInDataset: 2048
DatasetsInFile: 1
SamplingInterval: 5.00000E-01
ZeroOrderPhase: 0E0
BeginTime: 0E0
TransmitterFrequency: 1.27740E+08
MagneticField: 0E0
TypeOfNucleus: 0E0
NameOfPatient: 
DateOfExperiment: 
Spectrometer: Vespa-Simulation
AdditionalInfo: see 'readme' file for Vespa-Simulation output synopsis
 
  
Signal and FFT 
sig(real)	sig(imag)	fft(real)	fft(imag)
Signal 1 out of 1 in file
1.03469E+01	-1.61784E-02	8.71113E+00	-2.86647E+01
7.66848E+00	-4.48974E+00	8.31113E+00	-2.77614E+01
1.70220E+00	-6.44818E+00	7.97363E+00	-2.69290E+01
-3.29897E+00	-5.20329E+00	7.68841E+00	-2.61631E+01
-4.24724E+00	-2.20948E+00	7.44570E+00	-2.54572E+01
-1.51242E+00	2.24818E-01	7.23758E+00	-2.48050E+01
1.75680E+00	7.14191E-01	7.05773E+00	-2.42005E+01
2.51087E+00	-3.76184E-01	6.90105E+00	-2.36384E+01
2.95003E-01	-1.56623E+00	6.76363E+00	-2.31139E+01
-2.69753E+00	-1.62540E+00	6.64265E+00	-2.26230E+01
-3.81346E+00	-4.55325E-01	6.53537E+00	-2.21623E+01
-2.25877E+00	1.11149E+00	6.43984E+00	-2.17289E+01
4.70132E-01	2.18308E+00	6.35418E+00	-2.13200E+01
2.20709E+00	2.46079E+00	6.27717E+00	-2.09331E+01
2.11882E+00	2.18366E+00	6.20764E+00	-2.05664E+01
1.24368E+00	1.63451E+00	6.14480E+00	-2.02180E+01
1.22454E+00	8.25374E-01	6.08765E+00	-1.98864E+01
2.58020E+00	-3.47775E-01	6.03563E+00	-1.95702E+01
4.17747E+00	-1.75948E+00	5.98817E+00	-1.92682E+01
4.32946E+00	-2.98225E+00	5.94472E+00	-1.89794E+01
2.40449E+00	-3.59711E+00	5.90463E+00	-1.87028E+01
-5.72933E-01	-3.53768E+00	5.86769E+00	-1.84372E+01
-2.82321E+00	-3.07256E+00	5.83358E+00	-1.81819E+01
-3.30244E+00	-2.44777E+00	5.80216E+00	-1.79364E+01
-2.40856E+00	-1.61575E+00	5.77301E+00	-1.76999E+01
-1.36454E+00	-3.99741E-01	5.74589E+00	-1.74719E+01
-9.98525E-01	1.06250E+00	5.72062E+00	-1.72516E+01
-1.11519E+00	2.13651E+00	5.69704E+00	-1.70389E+01
-9.62626E-01	2.11241E+00	5.67492E+00	-1.68329E+01
-1.91017E-01	9.29975E-01	5.65443E+00	-1.66333E+01
7.31178E-01	-5.26620E-01	5.63546E+00	-1.64400E+01
1.05455E+00	-1.01079E+00	5.61761E+00	-1.62528E+01
6.39845E-01	2.95420E-03	5.60049E+00	-1.60711E+01
2.25022E-01	1.69335E+00	5.58427E+00	-1.58943E+01
7.17105E-01	2.40442E+00	5.56904E+00	-1.57222E+01
2.16452E+00	9.95147E-01	5.55490E+00	-1.55547E+01
3.45433E+00	-2.08677E+00	5.54152E+00	-1.53918E+01
3.14423E+00	-4.98206E+00	5.52892E+00	-1.52328E+01
7.65029E-01	-5.78818E+00	5.51728E+00	-1.50780E+01
-2.57704E+00	-4.01978E+00	5.50625E+00	-1.49273E+01
-4.90572E+00	-9.50687E-01	5.49527E+00	-1.47804E+01
-4.86063E+00	1.43159E+00	5.48500E+00	-1.46362E+01
-2.73540E+00	1.95869E+00	5.47547E+00	-1.44959E+01
-2.07766E-01	1.03016E+00	5.46589E+00	-1.43585E+01
9.99064E-01	3.32741E-02	5.45718E+00	-1.42235E+01
4.09554E-01	4.63088E-02	5.44931E+00	-1.40921E+01
-9.84318E-01	9.88286E-01	5.44117E+00	-1.39638E+01
-1.67101E+00	1.88264E+00	5.43324E+00	-1.38375E+01
-8.80272E-01	1.86570E+00	5.42593E+00	-1.37136E+01
8.76511E-01	9.53669E-01	5.41908E+00	-1.35922E+01
2.34156E+00	-9.54471E-02	5.41260E+00	-1.34733E+01
2.57315E+00	-5.93196E-01	5.40654E+00	-1.33565E+01
1.62373E+00	-5.68570E-01	5.40104E+00	-1.32422E+01
3.38852E-01	-6.39640E-01	5.39535E+00	-1.31307E+01
-4.44866E-01	-1.28556E+00	5.38907E+00	-1.30207E+01
-5.68230E-01	-2.26893E+00	5.38322E+00	-1.29119E+01
-5.49125E-01	-2.78665E+00	5.37810E+00	-1.28048E+01
-9.92306E-01	-2.20445E+00	5.37365E+00	-1.26996E+01
-1.97150E+00	-6.68956E-01	5.36958E+00	-1.25968E+01
-2.91493E+00	9.81027E-01	5.36530E+00	-1.24960E+01
-3.06500E+00	1.91019E+00	5.36082E+00	-1.23968E+01
-2.10639E+00	1.93518E+00	5.35631E+00	-1.22990E+01
-4.47234E-01	1.54510E+00	5.35183E+00	-1.22025E+01
1.05633E+00	1.33026E+00	5.34752E+00	-1.21072E+01
1.69864E+00	1.40464E+00	5.34365E+00	-1.20131E+01
1.38560E+00	1.37479E+00	5.34016E+00	-1.19204E+01
6.33258E-01	8.44775E-01	5.33693E+00	-1.18292E+01
1.41036E-01	-8.38082E-02	5.33387E+00	-1.17395E+01
2.79727E-01	-8.42533E-01	5.33090E+00	-1.16513E+01
8.62963E-01	-9.43381E-01	5.32776E+00	-1.15644E+01
1.33570E+00	-4.98544E-01	5.32463E+00	-1.14785E+01
1.20547E+00	-1.69071E-01	5.32156E+00	-1.13937E+01
3.87869E-01	-5.41431E-01	5.31860E+00	-1.13099E+01
-7.66049E-01	-1.50083E+00	5.31576E+00	-1.12271E+01
-1.73949E+00	-2.21694E+00	5.31308E+00	-1.11453E+01
-2.18525E+00	-1.81757E+00	5.31063E+00	-1.10645E+01
-2.07972E+00	-1.84538E-01	5.30846E+00	-1.09850E+01
-1.62274E+00	1.84051E+00	5.30611E+00	-1.09066E+01
-1.01969E+00	3.05629E+00	5.30363E+00	-1.08291E+01
-3.53529E-01	2.82300E+00	5.30117E+00	-1.07523E+01
3.62179E-01	1.53222E+00	5.29886E+00	-1.06762E+01
1.04517E+00	2.40347E-01	5.29670E+00	-1.06010E+01
1.49869E+00	-2.05842E-01	5.29476E+00	-1.05267E+01
1.53755E+00	1.93296E-01	5.29294E+00	-1.04533E+01
1.17598E+00	7.01782E-01	5.29113E+00	-1.03808E+01
6.78691E-01	5.62412E-01	5.28923E+00	-1.03092E+01
3.83204E-01	-3.33725E-01	5.28727E+00	-1.02382E+01
4.19390E-01	-1.38860E+00	5.28548E+00	-1.01678E+01
5.76325E-01	-1.85458E+00	5.28388E+00	-1.00982E+01
4.63821E-01	-1.48082E+00	5.28221E+00	-1.00295E+01
-1.41675E-01	-6.80519E-01	5.28050E+00	-9.96126E+00
-1.05923E+00	-1.05982E-01	5.27899E+00	-9.89375E+00
-1.79630E+00	-4.71364E-02	5.27745E+00	-9.82694E+00
-1.91566E+00	-2.02996E-01	5.27595E+00	-9.76068E+00
-1.37374E+00	-1.55542E-02	5.27457E+00	-9.69514E+00
-5.40209E-01	7.56714E-01	5.27311E+00	-9.63018E+00
1.17794E-01	1.75503E+00	5.27174E+00	-9.56577E+00
4.09010E-01	2.28635E+00	5.27047E+00	-9.50197E+00
5.20804E-01	1.90440E+00	5.26911E+00	-9.43888E+00
7.69640E-01	7.95767E-01	5.26760E+00	-9.37600E+00
1.23923E+00	-3.61908E-01	5.26662E+00	-9.31348E+00
1.65278E+00	-9.40767E-01	5.26594E+00	-9.25204E+00
1.60920E+00	-8.35915E-01	5.26468E+00	-9.19145E+00
9.72560E-01	-4.79324E-01	5.26319E+00	-9.13081E+00
4.97342E-02	-4.09251E-01	5.26220E+00	-9.07047E+00
-6.27805E-01	-7.87965E-01	5.26130E+00	-9.01118E+00
-7.40923E-01	-1.28217E+00	5.25970E+00	-8.95216E+00
-4.50812E-01	-1.38699E+00	5.25850E+00	-8.89277E+00
-2.48270E-01	-8.86244E-01	5.25819E+00	-8.83435E+00
-5.04813E-01	-3.95728E-02	5.25738E+00	-8.77695E+00
-1.11938E+00	6.53994E-01	5.25623E+00	-8.71980E+00
-1.57937E+00	8.86494E-01	5.25510E+00	-8.66261E+00
-1.39320E+00	7.74821E-01	5.25455E+00	-8.60614E+00
-5.21293E-01	6.97691E-01	5.25320E+00	-8.55036E+00
5.69720E-01	8.99597E-01	5.25186E+00	-8.49388E+00
1.27626E+00	1.23299E+00	5.25168E+00	-8.43794E+00
1.32956E+00	1.28001E+00	5.25137E+00	-8.38323E+00
9.65440E-01	7.46288E-01	5.25050E+00	-8.32892E+00
6.60098E-01	-2.30033E-01	5.24959E+00	-8.27448E+00
6.83281E-01	-1.14133E+00	5.24914E+00	-8.22060E+00
8.70582E-01	-1.50218E+00	5.24820E+00	-8.16737E+00
8.08835E-01	-1.23318E+00	5.24702E+00	-8.11390E+00
2.53391E-01	-7.02621E-01	5.24638E+00	-8.06043E+00
-6.09446E-01	-3.91380E-01	5.24602E+00	-8.00769E+00
-1.29405E+00	-4.75436E-01	5.24555E+00	-7.95541E+00
-1.42164E+00	-6.91037E-01	5.24492E+00	-7.90349E+00
-1.03445E+00	-5.96673E-01	5.24424E+00	-7.85175E+00
-5.38072E-01	4.83636E-03	5.24365E+00	-7.80029E+00
-3.28815E-01	8.59957E-01	5.24301E+00	-7.74913E+00
-4.44820E-01	1.45744E+00	5.24220E+00	-7.69823E+00
-5.53458E-01	1.45122E+00	5.24147E+00	-7.64726E+00
-2.81931E-01	9.41565E-01	5.24097E+00	-7.59648E+00
4.12924E-01	3.70938E-01	5.24079E+00	-7.54613E+00
1.17149E+00	1.31150E-01	5.24051E+00	-7.49620E+00
1.52263E+00	2.31463E-01	5.24025E+00	-7.44663E+00
1.27931E+00	3.18736E-01	5.23988E+00	-7.39739E+00
6.86220E-01	2.57939E-02	5.23933E+00	-7.34850E+00
1.91594E-01	-6.66573E-01	5.23844E+00	-7.29960E+00
5.15207E-02	-1.37821E+00	5.23759E+00	-7.25051E+00
1.22944E-01	-1.63508E+00	5.23714E+00	-7.20137E+00
2.82391E-02	-1.26273E+00	5.23704E+00	-7.15277E+00
-4.60810E-01	-5.23455E-01	5.23678E+00	-7.10455E+00
-1.16973E+00	1.16175E-01	5.23647E+00	-7.05655E+00
-1.63284E+00	3.74246E-01	5.23610E+00	-7.00878E+00
-1.47855E+00	3.54005E-01	5.23558E+00	-6.96117E+00
-7.52757E-01	3.89090E-01	5.23492E+00	-6.91356E+00
1.03055E-01	6.88351E-01	5.23428E+00	-6.86580E+00
6.02643E-01	1.11459E+00	5.23402E+00	-6.81788E+00
5.93721E-01	1.30090E+00	5.23433E+00	-6.77036E+00
3.44475E-01	9.96288E-01	5.23479E+00	-6.72354E+00
2.74692E-01	3.18672E-01	5.23478E+00	-6.67737E+00
5.73731E-01	-3.24161E-01	5.23439E+00	-6.63088E+00
1.03612E+00	-5.81232E-01	5.23441E+00	-6.58491E+00
1.24745E+00	-4.59102E-01	5.23323E+00	-6.53930E+00
9.47888E-01	-2.99770E-01	5.23178E+00	-6.49222E+00
2.54911E-01	-4.49504E-01	5.23177E+00	-6.44490E+00
-4.39748E-01	-9.17078E-01	5.23238E+00	-6.39850E+00
-7.96718E-01	-1.33625E+00	5.23238E+00	-6.35339E+00
-7.89449E-01	-1.27624E+00	5.23116E+00	-6.30717E+00
-6.78330E-01	-6.27844E-01	5.23114E+00	-6.26054E+00
-7.35654E-01	2.81078E-01	5.23133E+00	-6.21426E+00
-9.73696E-01	9.46708E-01	5.23199E+00	-6.16845E+00
-1.11984E+00	1.09607E+00	5.23238E+00	-6.12330E+00
-8.60649E-01	8.77147E-01	5.23241E+00	-6.07834E+00
-1.42299E-01	6.69526E-01	5.23188E+00	-6.03351E+00
7.34700E-01	7.00579E-01	5.23115E+00	-5.98807E+00
1.31432E+00	8.29748E-01	5.23053E+00	-5.94256E+00
1.31925E+00	7.04747E-01	5.22997E+00	-5.89653E+00
8.50634E-01	1.42536E-01	5.23026E+00	-5.85055E+00
2.96662E-01	-6.33310E-01	5.23048E+00	-5.80527E+00
2.81347E-02	-1.14222E+00	5.23047E+00	-5.75977E+00
1.25357E-01	-1.06658E+00	5.23078E+00	-5.71447E+00
3.45336E-01	-5.58095E-01	5.23079E+00	-5.66944E+00
3.40425E-01	-1.29390E-01	5.23062E+00	-5.62422E+00
-5.61626E-02	-2.01000E-01	5.23049E+00	-5.57881E+00
-7.01886E-01	-7.00639E-01	5.23053E+00	-5.53345E+00
-1.25983E+00	-1.08862E+00	5.23050E+00	-5.48806E+00
-1.44817E+00	-8.14526E-01	5.23051E+00	-5.44267E+00
-1.22159E+00	1.80213E-01	5.23051E+00	-5.39713E+00
-7.55602E-01	1.35825E+00	5.23067E+00	-5.35161E+00
-2.74972E-01	1.98783E+00	5.23088E+00	-5.30614E+00
1.12171E-01	1.71699E+00	5.23099E+00	-5.26083E+00
4.38083E-01	8.34099E-01	5.23084E+00	-5.21535E+00
7.58823E-01	8.64249E-04	5.23070E+00	-5.16959E+00
1.03035E+00	-2.99681E-01	5.23072E+00	-5.12362E+00
1.10854E+00	-1.20953E-01	5.23086E+00	-5.07762E+00
8.82448E-01	7.51624E-02	5.23107E+00	-5.03157E+00
4.13367E-01	-1.12880E-01	5.23135E+00	-4.98550E+00
-6.70808E-02	-6.52208E-01	5.23158E+00	-4.93940E+00
-3.23631E-01	-1.12351E+00	5.23182E+00	-4.89327E+00
-3.12898E-01	-1.12261E+00	5.23185E+00	-4.84694E+00
