jMRUI Data Textfile
 
Filename: mI.txt
 
PointsInDataset: 2048
DatasetsInFile: 1
SamplingInterval: 5.00000E-01
ZeroOrderPhase: 0E0
BeginTime: 0E0
TransmitterFrequency: 1.27740E+08
MagneticField: 0E0
TypeOfNucleus: 0E0
NameOfPatient: 
DateOfExperiment: 
Spectrometer: Vespa-Simulation
AdditionalInfo: see 'readme' file for Vespa-Simulation output synopsis
 
  
Signal and FFT 
sig(real)	sig(imag)	fft(real)	fft(imag)
Signal 1 out of 1 in file
5.88055E+00	-4.49626E-03	3.04975E+00	-1.39460E+01
5.27808E+00	-2.49841E+00	3.04750E+00	-1.38326E+01
3.64308E+00	-4.44515E+00	3.04535E+00	-1.37210E+01
1.34903E+00	-5.44180E+00	3.04326E+00	-1.36113E+01
-1.09115E+00	-5.31031E+00	3.04124E+00	-1.35034E+01
-3.14994E+00	-4.13333E+00	3.03920E+00	-1.33973E+01
-4.40995E+00	-2.22519E+00	3.03727E+00	-1.32928E+01
-4.65680E+00	-4.75505E-02	3.03549E+00	-1.31900E+01
-3.91842E+00	1.90674E+00	3.03375E+00	-1.30889E+01
-2.44344E+00	3.23092E+00	3.03192E+00	-1.29894E+01
-6.27589E-01	3.69336E+00	3.03023E+00	-1.28912E+01
1.08990E+00	3.27804E+00	3.02870E+00	-1.27947E+01
2.33226E+00	2.17018E+00	3.02710E+00	-1.26997E+01
2.86693E+00	6.95036E-01	3.02544E+00	-1.26061E+01
2.64541E+00	-7.70751E-01	3.02397E+00	-1.25137E+01
1.79549E+00	-1.89087E+00	3.02261E+00	-1.24230E+01
5.73165E-01	-2.44150E+00	3.02106E+00	-1.23335E+01
-7.09391E-01	-2.34874E+00	3.01964E+00	-1.22451E+01
-1.75954E+00	-1.68722E+00	3.01837E+00	-1.21582E+01
-2.36513E+00	-6.45333E-01	3.01700E+00	-1.20724E+01
-2.42871E+00	5.29209E-01	3.01570E+00	-1.19879E+01
-1.97187E+00	1.58806E+00	3.01447E+00	-1.19045E+01
-1.11420E+00	2.33099E+00	3.01329E+00	-1.18222E+01
-3.66969E-02	2.63627E+00	3.01216E+00	-1.17411E+01
1.05920E+00	2.47042E+00	3.01104E+00	-1.16612E+01
1.98763E+00	1.88064E+00	3.00992E+00	-1.15823E+01
2.60419E+00	9.76168E-01	3.00887E+00	-1.15045E+01
2.82045E+00	-9.48183E-02	3.00784E+00	-1.14277E+01
2.60919E+00	-1.16808E+00	3.00680E+00	-1.13520E+01
2.00314E+00	-2.08388E+00	3.00577E+00	-1.12772E+01
1.08932E+00	-2.70527E+00	3.00476E+00	-1.12034E+01
-4.89154E-04	-2.93461E+00	3.00383E+00	-1.11306E+01
-1.10428E+00	-2.72829E+00	3.00277E+00	-1.10588E+01
-2.05012E+00	-2.10745E+00	3.00167E+00	-1.09877E+01
-2.68218E+00	-1.16124E+00	3.00071E+00	-1.09175E+01
-2.88876E+00	-3.91369E-02	2.99978E+00	-1.08482E+01
-2.62755E+00	1.07005E+00	2.99888E+00	-1.07797E+01
-1.94055E+00	1.97062E+00	2.99804E+00	-1.07120E+01
-9.53113E-01	2.49875E+00	2.99725E+00	-1.06452E+01
1.45985E-01	2.55928E+00	2.99654E+00	-1.05792E+01
1.14095E+00	2.15044E+00	2.99582E+00	-1.05141E+01
1.83538E+00	1.36908E+00	2.99507E+00	-1.04498E+01
2.09709E+00	3.92811E-01	2.99427E+00	-1.03862E+01
1.89051E+00	-5.58520E-01	2.99350E+00	-1.03234E+01
1.28691E+00	-1.27317E+00	2.99272E+00	-1.02613E+01
4.48781E-01	-1.59802E+00	2.99194E+00	-1.01999E+01
-4.08612E-01	-1.47566E+00	2.99116E+00	-1.01391E+01
-1.06975E+00	-9.58520E-01	2.99045E+00	-1.00790E+01
-1.37182E+00	-1.95530E-01	2.98980E+00	-1.00195E+01
-1.24472E+00	6.05321E-01	2.98926E+00	-9.96081E+00
-7.27779E-01	1.22945E+00	2.98867E+00	-9.90284E+00
4.11946E-02	1.50927E+00	2.98803E+00	-9.84551E+00
8.61627E-01	1.36553E+00	2.98740E+00	-9.78878E+00
1.52083E+00	8.25789E-01	2.98677E+00	-9.73268E+00
1.84695E+00	1.58712E-02	2.98611E+00	-9.67717E+00
1.75021E+00	-8.72754E-01	2.98548E+00	-9.62218E+00
1.24295E+00	-1.63101E+00	2.98495E+00	-9.56778E+00
4.33923E-01	-2.08260E+00	2.98446E+00	-9.51402E+00
-5.00470E-01	-2.12475E+00	2.98395E+00	-9.46088E+00
-1.35980E+00	-1.74923E+00	2.98343E+00	-9.40828E+00
-1.96653E+00	-1.04012E+00	2.98291E+00	-9.35627E+00
-2.20501E+00	-1.49935E-01	2.98236E+00	-9.30480E+00
-2.04339E+00	7.38198E-01	2.98175E+00	-9.25381E+00
-1.53498E+00	1.45293E+00	2.98121E+00	-9.20325E+00
-8.00195E-01	1.87062E+00	2.98077E+00	-9.15325E+00
4.67495E-03	1.93775E+00	2.98031E+00	-9.10381E+00
7.23929E-01	1.67574E+00	2.97985E+00	-9.05483E+00
1.23451E+00	1.16884E+00	2.97945E+00	-9.00639E+00
1.46803E+00	5.40152E-01	2.97900E+00	-8.95847E+00
1.41848E+00	-7.79300E-02	2.97852E+00	-8.91100E+00
1.13603E+00	-5.71758E-01	2.97802E+00	-8.86396E+00
7.10054E-01	-8.66746E-01	2.97756E+00	-8.81734E+00
2.46442E-01	-9.37525E-01	2.97717E+00	-8.77114E+00
-1.55540E-01	-8.06840E-01	2.97684E+00	-8.72546E+00
-4.21914E-01	-5.35128E-01	2.97648E+00	-8.68028E+00
-5.15651E-01	-2.04282E-01	2.97610E+00	-8.63552E+00
-4.39873E-01	1.00736E-01	2.97576E+00	-8.59121E+00
-2.33283E-01	3.08839E-01	2.97529E+00	-8.54744E+00
4.04011E-02	3.75421E-01	2.97469E+00	-8.50388E+00
3.06595E-01	2.89288E-01	2.97427E+00	-8.46064E+00
4.94974E-01	7.31177E-02	2.97383E+00	-8.41784E+00
5.53127E-01	-2.22152E-01	2.97345E+00	-8.37533E+00
4.56563E-01	-5.27692E-01	2.97328E+00	-8.33328E+00
2.13667E-01	-7.70376E-01	2.97304E+00	-8.29183E+00
-1.35461E-01	-8.87259E-01	2.97267E+00	-8.25073E+00
-5.25953E-01	-8.38396E-01	2.97228E+00	-8.20993E+00
-8.80253E-01	-6.15808E-01	2.97192E+00	-8.16949E+00
-1.12311E+00	-2.46585E-01	2.97155E+00	-8.12942E+00
-1.19688E+00	2.10955E-01	2.97114E+00	-8.08967E+00
-1.07396E+00	6.77314E-01	2.97077E+00	-8.05016E+00
-7.63848E-01	1.06693E+00	2.97058E+00	-8.01104E+00
-3.12819E-01	1.30513E+00	2.97032E+00	-7.97243E+00
2.04099E-01	1.34357E+00	2.96999E+00	-7.93408E+00
6.97163E-01	1.17069E+00	2.96967E+00	-7.89605E+00
1.07969E+00	8.14947E-01	2.96939E+00	-7.85830E+00
1.28555E+00	3.39540E-01	2.96920E+00	-7.82092E+00
1.28242E+00	-1.69982E-01	2.96896E+00	-7.78399E+00
1.07821E+00	-6.23062E-01	2.96861E+00	-7.74736E+00
7.19016E-01	-9.42416E-01	2.96822E+00	-7.71095E+00
2.78880E-01	-1.07947E+00	2.96784E+00	-7.67486E+00
-1.55901E-01	-1.02328E+00	2.96740E+00	-7.63897E+00
-5.04942E-01	-8.01573E-01	2.96703E+00	-7.60329E+00
-7.10085E-01	-4.73456E-01	2.96677E+00	-7.56783E+00
-7.46559E-01	-1.15601E-01	2.96665E+00	-7.53273E+00
-6.26488E-01	1.94605E-01	2.96658E+00	-7.49802E+00
-3.94571E-01	3.95612E-01	2.96651E+00	-7.46372E+00
-1.16798E-01	4.54193E-01	2.96633E+00	-7.42977E+00
1.34850E-01	3.71260E-01	2.96605E+00	-7.39610E+00
2.98510E-01	1.80237E-01	2.96570E+00	-7.36262E+00
3.35751E-01	-6.15909E-02	2.96535E+00	-7.32934E+00
2.39415E-01	-2.86626E-01	2.96503E+00	-7.29627E+00
3.44804E-02	-4.32270E-01	2.96476E+00	-7.26344E+00
-2.28006E-01	-4.54895E-01	2.96454E+00	-7.23085E+00
-4.82489E-01	-3.39454E-01	2.96437E+00	-7.19861E+00
-6.63472E-01	-1.02798E-01	2.96412E+00	-7.16666E+00
-7.19852E-01	2.09728E-01	2.96383E+00	-7.13490E+00
-6.26283E-01	5.33780E-01	2.96355E+00	-7.10336E+00
-3.89003E-01	7.99574E-01	2.96321E+00	-7.07201E+00
-4.51979E-02	9.46454E-01	2.96295E+00	-7.04074E+00
3.44162E-01	9.35851E-01	2.96291E+00	-7.00970E+00
7.06395E-01	7.59695E-01	2.96299E+00	-6.97905E+00
9.71797E-01	4.42574E-01	2.96311E+00	-6.94880E+00
1.08762E+00	3.73883E-02	2.96316E+00	-6.91897E+00
1.02890E+00	-3.84906E-01	2.96299E+00	-6.88948E+00
8.03687E-01	-7.49171E-01	2.96260E+00	-6.86015E+00
4.51453E-01	-9.90957E-01	2.96213E+00	-6.83092E+00
3.54533E-02	-1.06897E+00	2.96143E+00	-6.80186E+00
-3.69841E-01	-9.73084E-01	2.96060E+00	-6.77244E+00
-6.93366E-01	-7.25931E-01	2.96037E+00	-6.74287E+00
-8.81233E-01	-3.78007E-01	2.96069E+00	-6.71384E+00
-9.06968E-01	2.92499E-03	2.96089E+00	-6.68557E+00
-7.75858E-01	3.45241E-01	2.96077E+00	-6.65731E+00
-5.23182E-01	5.87763E-01	2.96099E+00	-6.62921E+00
-2.06361E-01	6.91478E-01	2.96130E+00	-6.60170E+00
1.07063E-01	6.46620E-01	2.96130E+00	-6.57468E+00
3.53185E-01	4.73799E-01	2.96088E+00	-6.54782E+00
4.84488E-01	2.19091E-01	2.96021E+00	-6.52081E+00
4.79121E-01	-5.58063E-02	2.95969E+00	-6.49363E+00
3.44973E-01	-2.86506E-01	2.95942E+00	-6.46665E+00
1.17813E-01	-4.19038E-01	2.95908E+00	-6.43990E+00
-1.46049E-01	-4.21164E-01	2.95882E+00	-6.41312E+00
-3.81292E-01	-2.89348E-01	2.95884E+00	-6.38653E+00
-5.27111E-01	-5.01507E-02	2.95904E+00	-6.36031E+00
-5.40237E-01	2.44357E-01	2.95923E+00	-6.33452E+00
-4.04963E-01	5.26498E-01	2.95926E+00	-6.30910E+00
-1.37941E-01	7.26693E-01	2.95903E+00	-6.28387E+00
2.13173E-01	7.88115E-01	2.95861E+00	-6.25860E+00
5.77809E-01	6.79991E-01	2.95833E+00	-6.23328E+00
8.75929E-01	4.06288E-01	2.95818E+00	-6.20822E+00
1.03463E+00	7.74730E-03	2.95795E+00	-6.18333E+00
1.00463E+00	-4.43826E-01	2.95774E+00	-6.15850E+00
7.73164E-01	-8.58531E-01	2.95768E+00	-6.13382E+00
3.69757E-01	-1.14671E+00	2.95768E+00	-6.10944E+00
-1.36518E-01	-1.23844E+00	2.95761E+00	-6.08530E+00
-6.49240E-01	-1.10076E+00	2.95745E+00	-6.06134E+00
-1.06393E+00	-7.47748E-01	2.95723E+00	-6.03746E+00
-1.29078E+00	-2.40742E-01	2.95703E+00	-6.01368E+00
-1.27571E+00	3.22358E-01	2.95685E+00	-5.99001E+00
-1.01464E+00	8.26967E-01	2.95672E+00	-5.96649E+00
-5.57101E-01	1.16686E+00	2.95664E+00	-5.94310E+00
2.84066E-03	1.26890E+00	2.95661E+00	-5.91995E+00
5.46086E-01	1.11079E+00	2.95652E+00	-5.89697E+00
9.55345E-01	7.28117E-01	2.95642E+00	-5.87417E+00
1.14236E+00	2.07540E-01	2.95628E+00	-5.85148E+00
1.06914E+00	-3.32424E-01	2.95612E+00	-5.82890E+00
7.57607E-01	-7.68774E-01	2.95600E+00	-5.80645E+00
2.85076E-01	-1.00306E+00	2.95585E+00	-5.78417E+00
-2.34075E-01	-9.84973E-01	2.95570E+00	-5.76195E+00
-6.75403E-01	-7.24235E-01	2.95562E+00	-5.73986E+00
-9.34423E-01	-2.88134E-01	2.95561E+00	-5.71796E+00
-9.51471E-01	2.15107E-01	2.95554E+00	-5.69631E+00
-7.25470E-01	6.62803E-01	2.95536E+00	-5.67473E+00
-3.13233E-01	9.47440E-01	2.95521E+00	-5.65320E+00
1.85256E-01	1.00204E+00	2.95516E+00	-5.63182E+00
6.51905E-01	8.15017E-01	2.95503E+00	-5.61068E+00
9.78595E-01	4.31180E-01	2.95480E+00	-5.58956E+00
1.09226E+00	-6.07674E-02	2.95467E+00	-5.56844E+00
9.70178E-01	-5.50612E-01	2.95470E+00	-5.54753E+00
6.42581E-01	-9.32803E-01	2.95468E+00	-5.52690E+00
1.82764E-01	-1.12981E+00	2.95450E+00	-5.50637E+00
-3.11951E-01	-1.10724E+00	2.95434E+00	-5.48590E+00
-7.42976E-01	-8.77917E-01	2.95411E+00	-5.46549E+00
-1.03144E+00	-4.94886E-01	2.95399E+00	-5.44507E+00
-1.13201E+00	-3.67052E-02	2.95402E+00	-5.42487E+00
-1.03828E+00	4.10964E-01	2.95398E+00	-5.40487E+00
-7.79098E-01	7.72458E-01	2.95391E+00	-5.38497E+00
-4.08614E-01	9.94429E-01	2.95388E+00	-5.36518E+00
6.65226E-03	1.05168E+00	2.95384E+00	-5.34558E+00
4.00171E-01	9.46895E-01	2.95371E+00	-5.32612E+00
7.15232E-01	7.05842E-01	2.95351E+00	-5.30670E+00
9.10556E-01	3.70725E-01	2.95333E+00	-5.28728E+00
