jMRUI Data Textfile
 
Filename: NAA.txt
 
PointsInDataset: 2048
DatasetsInFile: 1
SamplingInterval: 5.00000E-01
ZeroOrderPhase: 0E0
BeginTime: 0E0
TransmitterFrequency: 1.27740E+08
MagneticField: 0E0
TypeOfNucleus: 0E0
NameOfPatient: 
DateOfExperiment: 
Spectrometer: Vespa-Simulation
AdditionalInfo: see 'readme' file for Vespa-Simulation output synopsis
 
  
Signal and FFT 
sig(real)	sig(imag)	fft(real)	fft(imag)
Signal 1 out of 1 in file
6.52674E+00	-1.60802E-02	4.08873E+00	-1.00451E+01
3.65490E+00	-3.21883E+00	4.04875E+00	-9.88246E+00
-1.87707E+00	-3.89273E+00	4.01153E+00	-9.72607E+00
-4.45765E+00	-1.50302E+00	3.97694E+00	-9.57533E+00
-1.91526E+00	1.92994E+00	3.94498E+00	-9.43053E+00
2.55085E+00	3.32774E+00	3.91512E+00	-9.29123E+00
4.28691E+00	1.31844E+00	3.88677E+00	-9.15746E+00
2.13213E+00	-2.23852E+00	3.85995E+00	-9.02753E+00
-1.01174E+00	-3.89384E+00	3.83512E+00	-8.90252E+00
-1.93155E+00	-2.14627E+00	3.81200E+00	-8.78142E+00
-4.52689E-01	8.93886E-01	3.78980E+00	-8.66474E+00
1.09168E+00	1.82619E+00	3.76907E+00	-8.55150E+00
9.14588E-01	-1.66680E-01	3.74945E+00	-8.44169E+00
-4.41970E-01	-2.41560E+00	3.73134E+00	-8.33535E+00
-1.20445E+00	-2.03212E+00	3.71409E+00	-8.23240E+00
-5.29757E-01	5.13650E-01	3.69782E+00	-8.13249E+00
7.45462E-01	1.91715E+00	3.68235E+00	-8.03544E+00
1.17349E+00	1.49724E-01	3.66786E+00	-7.94115E+00
1.46076E-01	-2.85340E+00	3.65405E+00	-7.84959E+00
-1.59132E+00	-3.34692E+00	3.64097E+00	-7.76045E+00
-2.54808E+00	-3.02403E-01	3.62861E+00	-7.67369E+00
-1.68821E+00	3.15086E+00	3.61703E+00	-7.58933E+00
5.45200E-01	3.20189E+00	3.60581E+00	-7.50741E+00
2.26452E+00	-2.83372E-01	3.59488E+00	-7.42740E+00
1.64129E+00	-3.58116E+00	3.58434E+00	-7.34914E+00
-1.14019E+00	-3.23588E+00	3.57463E+00	-7.27232E+00
-3.57139E+00	2.72743E-01	3.56585E+00	-7.19780E+00
-3.06965E+00	3.29500E+00	3.55716E+00	-7.12529E+00
1.75114E-01	3.01690E+00	3.54876E+00	-7.05437E+00
3.00394E+00	1.63182E-01	3.54072E+00	-6.98503E+00
2.46143E+00	-2.20103E+00	3.53297E+00	-6.91727E+00
-9.04912E-01	-1.96489E+00	3.52547E+00	-6.85087E+00
-3.46125E+00	2.28148E-01	3.51830E+00	-6.78585E+00
-2.43817E+00	2.08457E+00	3.51149E+00	-6.72214E+00
9.67520E-01	2.01984E+00	3.50493E+00	-6.65980E+00
2.95613E+00	4.00896E-01	3.49856E+00	-6.59865E+00
1.44926E+00	-1.10227E+00	3.49250E+00	-6.53856E+00
-1.61410E+00	-1.11352E+00	3.48685E+00	-6.47965E+00
-2.62785E+00	2.90667E-01	3.48147E+00	-6.42201E+00
-4.95229E-01	1.68629E+00	3.47630E+00	-6.36547E+00
2.23319E+00	1.59569E+00	3.47115E+00	-6.31018E+00
2.43683E+00	-3.37184E-02	3.46604E+00	-6.25547E+00
-6.54956E-03	-1.58660E+00	3.46165E+00	-6.20168E+00
-2.23995E+00	-1.30940E+00	3.45732E+00	-6.14943E+00
-1.77923E+00	7.14348E-01	3.45279E+00	-6.09774E+00
7.80445E-01	2.36088E+00	3.44869E+00	-6.04691E+00
2.62397E+00	1.63681E+00	3.44480E+00	-5.99705E+00
1.87583E+00	-9.56514E-01	3.44085E+00	-5.94817E+00
-5.38346E-01	-2.68647E+00	3.43690E+00	-5.89985E+00
-2.10521E+00	-1.53233E+00	3.43329E+00	-5.85221E+00
-1.37613E+00	1.39683E+00	3.42982E+00	-5.80553E+00
7.60098E-01	2.90028E+00	3.42623E+00	-5.75957E+00
2.18031E+00	1.23108E+00	3.42270E+00	-5.71391E+00
1.60744E+00	-1.85455E+00	3.41979E+00	-5.66895E+00
-3.26704E-01	-2.99357E+00	3.41701E+00	-5.62503E+00
-1.79227E+00	-9.74776E-01	3.41400E+00	-5.58197E+00
-1.44898E+00	1.92562E+00	3.41075E+00	-5.53913E+00
3.50746E-01	2.53757E+00	3.40799E+00	-5.49661E+00
1.85977E+00	3.16550E-01	3.40552E+00	-5.45493E+00
1.55356E+00	-2.18422E+00	3.40311E+00	-5.41400E+00
-3.31953E-01	-2.27085E+00	3.40059E+00	-5.37362E+00
-1.90227E+00	-3.16251E-02	3.39817E+00	-5.33378E+00
-1.47656E+00	1.97098E+00	3.39571E+00	-5.29437E+00
5.63243E-01	1.64340E+00	3.39346E+00	-5.25551E+00
2.02475E+00	-4.62511E-01	3.39110E+00	-5.21709E+00
1.23185E+00	-1.97701E+00	3.38899E+00	-5.17907E+00
-1.02992E+00	-1.35359E+00	3.38696E+00	-5.14160E+00
-2.24837E+00	6.17297E-01	3.38498E+00	-5.10474E+00
-9.72607E-01	1.82906E+00	3.38277E+00	-5.06822E+00
1.45319E+00	1.08793E+00	3.38083E+00	-5.03191E+00
2.30114E+00	-7.78345E-01	3.37899E+00	-4.99612E+00
5.35076E-01	-1.86457E+00	3.37727E+00	-4.96087E+00
-1.94525E+00	-1.08467E+00	3.37532E+00	-4.92592E+00
-2.38087E+00	8.10620E-01	3.37369E+00	-4.89113E+00
-2.39726E-01	1.97103E+00	3.37231E+00	-4.85690E+00
2.17596E+00	1.21760E+00	3.37099E+00	-4.82348E+00
2.27353E+00	-7.84693E-01	3.36896E+00	-4.79038E+00
-1.07076E-02	-2.09129E+00	3.36721E+00	-4.75684E+00
-2.21858E+00	-1.35071E+00	3.36609E+00	-4.72386E+00
-2.07868E+00	7.79400E-01	3.36511E+00	-4.69176E+00
1.30727E-01	2.17981E+00	3.36337E+00	-4.66022E+00
2.04241E+00	1.39432E+00	3.36166E+00	-4.62812E+00
1.78182E+00	-8.01900E-01	3.36065E+00	-4.59647E+00
-1.82325E-01	-2.13624E+00	3.35974E+00	-4.56565E+00
-1.73604E+00	-1.22905E+00	3.35791E+00	-4.53552E+00
-1.39422E+00	9.05139E-01	3.35603E+00	-4.50410E+00
2.90797E-01	1.94680E+00	3.35563E+00	-4.47334E+00
1.48561E+00	8.14693E-01	3.35535E+00	-4.44406E+00
1.02244E+00	-1.15529E+00	3.35277E+00	-4.41585E+00
-4.86827E-01	-1.73183E+00	3.35061E+00	-4.38345E+00
-1.38711E+00	-3.04187E-01	3.35290E+00	-4.35479E+00
-7.21869E-01	1.45054E+00	3.35038E+00	-4.32875E+00
7.86971E-01	1.49213E+00	3.34734E+00	-4.29746E+00
1.48787E+00	-2.61795E-01	3.34898E+00	-4.26874E+00
5.32092E-01	-1.83690E+00	3.34768E+00	-4.24201E+00
-1.16677E+00	-1.41489E+00	3.34591E+00	-4.21414E+00
-1.79532E+00	6.31996E-01	3.34475E+00	-4.18548E+00
-5.38820E-01	2.12527E+00	3.34480E+00	-4.15809E+00
1.44107E+00	1.42883E+00	3.34363E+00	-4.13141E+00
2.08857E+00	-7.99460E-01	3.34236E+00	-4.10429E+00
5.96982E-01	-2.29514E+00	3.34139E+00	-4.07689E+00
-1.63078E+00	-1.53173E+00	3.34119E+00	-4.05023E+00
-2.33400E+00	7.37892E-01	3.34025E+00	-4.02423E+00
-7.37787E-01	2.27738E+00	3.33910E+00	-3.99797E+00
1.58572E+00	1.61439E+00	3.33811E+00	-3.97141E+00
2.30982E+00	-5.40947E-01	3.33790E+00	-3.94527E+00
7.52448E-01	-2.06672E+00	3.33737E+00	-3.91991E+00
-1.45113E+00	-1.54529E+00	3.33645E+00	-3.89465E+00
-2.09006E+00	3.93146E-01	3.33539E+00	-3.86901E+00
-6.53097E-01	1.78578E+00	3.33506E+00	-3.84349E+00
1.25309E+00	1.33255E+00	3.33462E+00	-3.81866E+00
1.68617E+00	-3.53826E-01	3.33399E+00	-3.79391E+00
3.76219E-01	-1.47345E+00	3.33338E+00	-3.76923E+00
-1.13735E+00	-9.42347E-01	3.33297E+00	-3.74481E+00
-1.25350E+00	5.25239E-01	3.33227E+00	-3.72082E+00
9.81310E-03	1.26691E+00	3.33130E+00	-3.69666E+00
1.15373E+00	5.05767E-01	3.33045E+00	-3.67239E+00
8.98575E-01	-8.28630E-01	3.32990E+00	-3.64815E+00
-4.33964E-01	-1.17350E+00	3.32944E+00	-3.62431E+00
-1.31258E+00	-1.00680E-01	3.32884E+00	-3.60054E+00
-6.96098E-01	1.18781E+00	3.32839E+00	-3.57673E+00
8.00838E-01	1.19419E+00	3.32829E+00	-3.55321E+00
1.53522E+00	-1.85869E-01	3.32806E+00	-3.53029E+00
6.09788E-01	-1.49520E+00	3.32741E+00	-3.50728E+00
-1.09486E+00	-1.27514E+00	3.32702E+00	-3.48428E+00
-1.77917E+00	3.35720E-01	3.32661E+00	-3.46143E+00
-6.29110E-01	1.69835E+00	3.32618E+00	-3.43889E+00
1.24564E+00	1.37582E+00	3.32558E+00	-3.41625E+00
1.90331E+00	-3.54103E-01	3.32515E+00	-3.39370E+00
6.07155E-01	-1.75874E+00	3.32474E+00	-3.37126E+00
-1.34830E+00	-1.41066E+00	3.32439E+00	-3.34906E+00
-1.95111E+00	3.59716E-01	3.32383E+00	-3.32696E+00
-5.76504E-01	1.78947E+00	3.32332E+00	-3.30478E+00
1.35191E+00	1.45255E+00	3.32288E+00	-3.28260E+00
1.85763E+00	-3.07390E-01	3.32272E+00	-3.26060E+00
4.71325E-01	-1.71873E+00	3.32242E+00	-3.23891E+00
-1.32483E+00	-1.36380E+00	3.32213E+00	-3.21717E+00
-1.69333E+00	3.84211E-01	3.32188E+00	-3.19572E+00
-3.38500E-01	1.73511E+00	3.32145E+00	-3.17429E+00
1.27685E+00	1.31216E+00	3.32106E+00	-3.15282E+00
1.52286E+00	-4.24092E-01	3.32076E+00	-3.13150E+00
2.56235E-01	-1.65380E+00	3.32037E+00	-3.11006E+00
-1.14709E+00	-1.10903E+00	3.32047E+00	-3.08888E+00
-1.28268E+00	5.89924E-01	3.32016E+00	-3.06810E+00
-1.13480E-01	1.61277E+00	3.31984E+00	-3.04715E+00
1.10347E+00	8.96510E-01	3.31948E+00	-3.02631E+00
1.15717E+00	-7.24611E-01	3.31926E+00	-3.00544E+00
7.53851E-02	-1.46975E+00	3.31895E+00	-2.98489E+00
-9.80688E-01	-5.80622E-01	3.31846E+00	-2.96421E+00
-9.33219E-01	8.81405E-01	3.31803E+00	-2.94333E+00
1.27468E-01	1.27152E+00	3.31809E+00	-2.92260E+00
1.05755E+00	2.05225E-01	3.31782E+00	-2.90232E+00
8.51617E-01	-1.06389E+00	3.31758E+00	-2.88158E+00
-2.88104E-01	-1.10399E+00	3.31780E+00	-2.86137E+00
-1.12485E+00	9.27652E-02	3.31745E+00	-2.84152E+00
-6.91688E-01	1.15293E+00	3.31679E+00	-2.82103E+00
6.09442E-01	8.88667E-01	3.31694E+00	-2.80061E+00
1.35048E+00	-4.05478E-01	3.31678E+00	-2.78053E+00
6.12970E-01	-1.32085E+00	3.31697E+00	-2.76039E+00
-9.12298E-01	-8.76641E-01	3.31694E+00	-2.74084E+00
-1.56543E+00	4.66124E-01	3.31664E+00	-2.72112E+00
-5.27160E-01	1.33152E+00	3.31613E+00	-2.70138E+00
1.17807E+00	8.49287E-01	3.31590E+00	-2.68111E+00
1.70496E+00	-5.04817E-01	3.31610E+00	-2.66151E+00
4.07941E-01	-1.41475E+00	3.31568E+00	-2.64206E+00
-1.38361E+00	-1.00103E+00	3.31521E+00	-2.62202E+00
-1.76805E+00	3.56964E-01	3.31553E+00	-2.60214E+00
-3.39861E-01	1.38172E+00	3.31536E+00	-2.58303E+00
1.37398E+00	1.09000E+00	3.31488E+00	-2.56320E+00
1.58818E+00	-2.62468E-01	3.31490E+00	-2.54352E+00
1.66790E-01	-1.37846E+00	3.31491E+00	-2.52395E+00
-1.32142E+00	-1.14675E+00	3.31485E+00	-2.50454E+00
-1.36348E+00	2.28984E-01	3.31480E+00	-2.48512E+00
-6.85659E-02	1.36594E+00	3.31472E+00	-2.46553E+00
1.10775E+00	1.08755E+00	3.31504E+00	-2.44645E+00
1.00646E+00	-3.13143E-01	3.31459E+00	-2.42733E+00
-9.37404E-02	-1.32955E+00	3.31463E+00	-2.40782E+00
-9.50705E-01	-8.55634E-01	3.31459E+00	-2.38877E+00
-7.37187E-01	5.69814E-01	3.31441E+00	-2.36958E+00
1.97700E-01	1.33187E+00	3.31421E+00	-2.35034E+00
8.35052E-01	5.59988E-01	3.31414E+00	-2.33107E+00
5.61846E-01	-8.56274E-01	3.31400E+00	-2.31189E+00
-2.88107E-01	-1.26928E+00	3.31391E+00	-2.29261E+00
-8.35659E-01	-1.79350E-01	3.31384E+00	-2.27340E+00
-5.17552E-01	1.16573E+00	3.31384E+00	-2.25408E+00
3.82102E-01	1.20120E+00	3.31392E+00	-2.23494E+00
9.76784E-01	-1.45387E-01	3.31388E+00	-2.21579E+00
6.07228E-01	-1.36656E+00	3.31397E+00	-2.19646E+00
-4.58787E-01	-1.09655E+00	3.31430E+00	-2.17736E+00
-1.17372E+00	3.58424E-01	3.31449E+00	-2.15848E+00
-7.14555E-01	1.40513E+00	3.31451E+00	-2.13955E+00
