jMRUI Data Textfile
 
Filename: PCho.txt
 
PointsInDataset: 2048
DatasetsInFile: 1
SamplingInterval: 5.00000E-01
ZeroOrderPhase: 0E0
BeginTime: 0E0
TransmitterFrequency: 1.27740E+08
MagneticField: 0E0
TypeOfNucleus: 0E0
NameOfPatient: 
DateOfExperiment: 
Spectrometer: Vespa-Simulation
AdditionalInfo: see 'readme' file for Vespa-Simulation output synopsis
 
  
Signal and FFT 
sig(real)	sig(imag)	fft(real)	fft(imag)
Signal 1 out of 1 in file
9.00000E+00	-1.56125E-16	4.62214E+00	-1.45782E+01
7.39941E+00	-5.04865E+00	4.62056E+00	-1.44991E+01
3.25139E+00	-8.30156E+00	4.61960E+00	-1.44201E+01
-1.98370E+00	-8.64909E+00	4.61895E+00	-1.43429E+01
-6.48272E+00	-5.99813E+00	4.61791E+00	-1.42664E+01
-8.69453E+00	-1.29487E+00	4.61664E+00	-1.41907E+01
-7.87464E+00	3.81271E+00	4.61545E+00	-1.41155E+01
-4.33541E+00	7.55201E+00	4.61418E+00	-1.40411E+01
6.72001E-01	8.64093E+00	4.61294E+00	-1.39671E+01
5.39970E+00	6.72725E+00	4.61200E+00	-1.38937E+01
8.21313E+00	2.50184E+00	4.61132E+00	-1.38213E+01
8.15591E+00	-2.55034E+00	4.61052E+00	-1.37499E+01
5.27480E+00	-6.67193E+00	4.60938E+00	-1.36791E+01
5.94015E-01	-8.44433E+00	4.60834E+00	-1.36086E+01
-4.24857E+00	-7.27579E+00	4.60745E+00	-1.35390E+01
-7.57441E+00	-3.59858E+00	4.60642E+00	-1.34703E+01
-8.24601E+00	1.29038E+00	4.60481E+00	-1.34019E+01
-6.05566E+00	5.68659E+00	4.60392E+00	-1.33334E+01
-1.78880E+00	8.07225E+00	4.60338E+00	-1.32662E+01
3.05754E+00	7.64011E+00	4.60231E+00	-1.31997E+01
6.79958E+00	4.56620E+00	4.60168E+00	-1.31334E+01
8.15179E+00	-6.01668E-02	4.60098E+00	-1.30684E+01
6.66830E+00	-4.62230E+00	4.59984E+00	-1.30037E+01
2.88945E+00	-7.54091E+00	4.59872E+00	-1.29394E+01
-1.85458E+00	-7.82069E+00	4.59783E+00	-1.28754E+01
-5.91186E+00	-5.38949E+00	4.59716E+00	-1.28121E+01
-7.88377E+00	-1.11468E+00	4.59663E+00	-1.27494E+01
-7.10698E+00	3.50604E+00	4.59608E+00	-1.26875E+01
-3.87630E+00	6.86926E+00	4.59531E+00	-1.26263E+01
6.66407E-01	7.82207E+00	4.59447E+00	-1.25654E+01
4.93577E+00	6.05714E+00	4.59385E+00	-1.25050E+01
7.45580E+00	2.21114E+00	4.59322E+00	-1.24455E+01
7.37019E+00	-2.36456E+00	4.59190E+00	-1.23867E+01
4.73307E+00	-6.07839E+00	4.59027E+00	-1.23274E+01
4.81526E-01	-7.65246E+00	4.58962E+00	-1.22683E+01
-3.89680E+00	-6.56167E+00	4.58892E+00	-1.22100E+01
-6.88460E+00	-3.20882E+00	4.58893E+00	-1.21522E+01
-7.46023E+00	1.22390E+00	4.58889E+00	-1.20960E+01
-5.44696E+00	5.19110E+00	4.58750E+00	-1.20405E+01
-1.56620E+00	7.32344E+00	4.58564E+00	-1.19842E+01
2.82046E+00	6.89962E+00	4.58457E+00	-1.19276E+01
6.18930E+00	4.09036E+00	4.58433E+00	-1.18718E+01
7.38311E+00	-1.08993E-01	4.58415E+00	-1.18169E+01
6.00891E+00	-4.23129E+00	4.58390E+00	-1.17626E+01
2.56672E+00	-6.84953E+00	4.58374E+00	-1.17090E+01
-1.73212E+00	-7.07121E+00	4.58344E+00	-1.16563E+01
-5.39072E+00	-4.84203E+00	4.58234E+00	-1.16041E+01
-7.14820E+00	-9.56972E-01	4.58081E+00	-1.15516E+01
-6.41374E+00	3.22313E+00	4.57960E+00	-1.14988E+01
-3.46510E+00	6.24775E+00	4.57928E+00	-1.14465E+01
6.55943E-01	7.08041E+00	4.57884E+00	-1.13950E+01
4.51109E+00	5.45328E+00	4.57850E+00	-1.13441E+01
6.76791E+00	1.95286E+00	4.57823E+00	-1.12937E+01
6.65978E+00	-2.19093E+00	4.57732E+00	-1.12440E+01
4.24632E+00	-5.53720E+00	4.57642E+00	-1.11942E+01
3.85035E-01	-6.93447E+00	4.57537E+00	-1.11447E+01
-3.57345E+00	-5.91718E+00	4.57456E+00	-1.10951E+01
-6.25723E+00	-2.86033E+00	4.57394E+00	-1.10459E+01
-6.74896E+00	1.15837E+00	4.57390E+00	-1.09969E+01
-4.89887E+00	4.73831E+00	4.57411E+00	-1.09489E+01
-1.36968E+00	6.64370E+00	4.57437E+00	-1.09016E+01
2.60081E+00	6.23048E+00	4.57413E+00	-1.08552E+01
5.63331E+00	3.66352E+00	4.57342E+00	-1.08091E+01
6.68655E+00	-1.48125E-01	4.57220E+00	-1.07631E+01
5.41428E+00	-3.87272E+00	4.57093E+00	-1.07168E+01
2.27907E+00	-6.22113E+00	4.56982E+00	-1.06704E+01
-1.61611E+00	-6.39321E+00	4.56959E+00	-1.06240E+01
-4.91506E+00	-4.34961E+00	4.56976E+00	-1.05789E+01
-6.48092E+00	-8.18859E-01	4.56934E+00	-1.05344E+01
-5.78775E+00	2.96220E+00	4.56873E+00	-1.04901E+01
-3.09672E+00	5.68211E+00	4.56791E+00	-1.04463E+01
6.41501E-01	6.40872E+00	4.56649E+00	-1.04025E+01
4.12236E+00	4.90920E+00	4.56508E+00	-1.03580E+01
6.14311E+00	1.72361E+00	4.56438E+00	-1.03133E+01
6.01747E+00	-2.02901E+00	4.56474E+00	-1.02688E+01
3.80907E+00	-5.04376E+00	4.56602E+00	-1.02253E+01
3.02432E-01	-6.28349E+00	4.56767E+00	-1.01833E+01
-3.27619E+00	-5.33565E+00	4.56887E+00	-1.01430E+01
-5.68665E+00	-2.54889E+00	4.56859E+00	-1.01039E+01
-6.10514E+00	1.09445E+00	4.56635E+00	-1.00648E+01
-4.40553E+00	4.32446E+00	4.56263E+00	-1.00242E+01
-1.19614E+00	6.02672E+00	4.55922E+00	-9.98121E+00
2.39738E+00	5.62588E+00	4.55881E+00	-9.93649E+00
5.12686E+00	3.28063E+00	4.56258E+00	-9.89542E+00
6.05539E+00	-1.78823E-01	4.56100E+00	-9.85915E+00
4.87814E+00	-3.54389E+00	4.55729E+00	-9.81685E+00
2.02257E+00	-5.65010E+00	4.55817E+00	-9.77359E+00
-1.50649E+00	-5.77988E+00	4.56116E+00	-9.73318E+00
-4.48089E+00	-3.90685E+00	4.56365E+00	-9.69548E+00
-5.87559E+00	-6.98399E-01	4.56456E+00	-9.65936E+00
-5.22242E+00	2.72182E+00	4.56355E+00	-9.62352E+00
-2.76692E+00	5.16728E+00	4.56121E+00	-9.58686E+00
6.23846E-01	5.80044E+00	4.55844E+00	-9.54889E+00
3.76675E+00	4.41889E+00	4.55639E+00	-9.50983E+00
5.57566E+00	1.52014E+00	4.55549E+00	-9.47056E+00
5.43679E+00	-1.87797E+00	4.55563E+00	-9.43183E+00
3.41639E+00	-4.59384E+00	4.55625E+00	-9.39405E+00
2.31804E-01	-5.69333E+00	4.55692E+00	-9.35721E+00
-3.00306E+00	-4.81090E+00	4.55720E+00	-9.32129E+00
-5.16773E+00	-2.27068E+00	4.55652E+00	-9.28560E+00
-5.52244E+00	1.03208E+00	4.55566E+00	-9.24931E+00
-3.96133E+00	3.94643E+00	4.55546E+00	-9.21299E+00
-1.04315E+00	5.46672E+00	4.55519E+00	-9.17732E+00
2.20902E+00	5.07965E+00	4.55510E+00	-9.14164E+00
4.66567E+00	2.93707E+00	4.55506E+00	-9.10657E+00
5.48350E+00	-2.02413E-01	4.55499E+00	-9.07181E+00
4.39473E+00	-3.24247E+00	4.55458E+00	-9.03756E+00
1.79422E+00	-5.13111E+00	4.55389E+00	-9.00327E+00
-1.40326E+00	-5.22505E+00	4.55298E+00	-8.96906E+00
-4.08468E+00	-3.50872E+00	4.55213E+00	-8.93456E+00
-5.32651E+00	-5.93336E-01	4.55148E+00	-8.90018E+00
-4.71205E+00	2.50018E+00	4.55117E+00	-8.86576E+00
-2.47150E+00	4.69883E+00	4.55115E+00	-8.83188E+00
6.03791E-01	5.24961E+00	4.55124E+00	-8.79834E+00
3.44127E+00	3.97727E+00	4.55108E+00	-8.76544E+00
5.06037E+00	1.33949E+00	4.55078E+00	-8.73234E+00
4.91186E+00	-1.73729E+00	4.55052E+00	-8.69972E+00
3.06373E+00	-4.18371E+00	4.55010E+00	-8.66699E+00
1.71932E-01	-5.15830E+00	4.55003E+00	-8.63429E+00
-2.75228E+00	-4.33736E+00	4.55021E+00	-8.60234E+00
-4.69586E+00	-2.02217E+00	4.54977E+00	-8.57079E+00
-4.99508E+00	9.71691E-01	4.54911E+00	-8.53890E+00
-3.56163E+00	3.60096E+00	4.54888E+00	-8.50701E+00
-9.08192E-01	4.95850E+00	4.54882E+00	-8.47563E+00
2.03475E+00	4.58616E+00	4.54842E+00	-8.44467E+00
4.24556E+00	2.62910E+00	4.54778E+00	-8.41342E+00
4.96534E+00	-2.20099E-01	4.54767E+00	-8.38222E+00
3.95880E+00	-2.96635E+00	4.54767E+00	-8.35174E+00
1.59072E+00	-4.65955E+00	4.54693E+00	-8.32176E+00
-1.30578E+00	-4.72328E+00	4.54553E+00	-8.29083E+00
-3.72315E+00	-3.15076E+00	4.54545E+00	-8.25905E+00
-4.82847E+00	-5.01841E-01	4.54681E+00	-8.22860E+00
-4.25126E+00	2.29602E+00	4.54718E+00	-8.19998E+00
-2.20719E+00	4.27250E+00	4.54677E+00	-8.17069E+00
5.82080E-01	4.75081E+00	4.54599E+00	-8.14223E+00
3.14360E+00	3.57936E+00	4.54410E+00	-8.11236E+00
4.59243E+00	1.17932E+00	4.54393E+00	-8.08151E+00
4.43733E+00	-1.60637E+00	4.54493E+00	-8.05202E+00
2.74704E+00	-3.80988E+00	4.54542E+00	-8.02392E+00
1.21277E-01	-4.67330E+00	4.54477E+00	-7.99589E+00
-2.52186E+00	-3.91020E+00	4.54409E+00	-7.96728E+00
-4.26685E+00	-1.80010E+00	4.54361E+00	-7.93876E+00
-4.51780E+00	9.13601E-01	4.54317E+00	-7.91039E+00
-3.20182E+00	3.28546E+00	4.54257E+00	-7.88199E+00
-7.89607E-01	4.49722E+00	4.54239E+00	-7.85343E+00
1.87362E+00	4.14035E+00	4.54249E+00	-7.82531E+00
3.86300E+00	2.35296E+00	4.54265E+00	-7.79755E+00
4.49591E+00	-2.32518E-01	4.54270E+00	-7.77023E+00
3.56589E+00	-2.71322E+00	4.54244E+00	-7.74308E+00
1.40968E+00	-4.23103E+00	4.54208E+00	-7.71580E+00
-1.21450E+00	-4.26934E+00	4.54208E+00	-7.68870E+00
-3.39330E+00	-2.82895E+00	4.54141E+00	-7.66212E+00
-4.37676E+00	-4.22296E-01	4.54091E+00	-7.63452E+00
-3.83526E+00	2.10803E+00	4.54123E+00	-7.60754E+00
-1.97064E+00	3.88457E+00	4.54159E+00	-7.58111E+00
5.58952E-01	4.29918E+00	4.54134E+00	-7.55535E+00
2.87124E+00	3.22103E+00	4.54084E+00	-7.52892E+00
4.16749E+00	1.03751E+00	4.54069E+00	-7.50285E+00
4.00832E+00	-1.48483E+00	4.54052E+00	-7.47676E+00
2.46270E+00	-3.46916E+00	4.54016E+00	-7.45122E+00
7.86342E-02	-4.23367E+00	4.53971E+00	-7.42493E+00
-2.31030E+00	-3.52484E+00	4.53989E+00	-7.39931E+00
-3.87674E+00	-1.60195E+00	4.54000E+00	-7.37363E+00
-4.08592E+00	8.57672E-01	4.53993E+00	-7.34906E+00
-2.87812E+00	2.99720E+00	4.53964E+00	-7.32327E+00
-6.84926E-01	4.07869E+00	4.53958E+00	-7.29913E+00
1.72469E+00	3.73762E+00	4.53959E+00	-7.27431E+00
3.51464E+00	2.10541E+00	4.53807E+00	-7.24982E+00
4.07063E+00	-2.40632E-01	4.53781E+00	-7.22461E+00
3.21170E+00	-2.48133E+00	4.53724E+00	-7.19953E+00
1.24856E+00	-3.84169E+00	4.53749E+00	-7.17484E+00
-1.12855E+00	-3.85886E+00	4.53711E+00	-7.15052E+00
-3.09253E+00	-2.53949E+00	4.53689E+00	-7.12613E+00
-3.96709E+00	-3.53264E-01	4.53657E+00	-7.10169E+00
-3.45972E+00	1.93497E+00	4.53668E+00	-7.07747E+00
-1.75897E+00	3.53163E+00	4.53652E+00	-7.05355E+00
5.34987E-01	3.89026E+00	4.53646E+00	-7.02958E+00
2.62215E+00	2.89828E+00	4.53652E+00	-7.00573E+00
3.78165E+00	9.11891E-01	4.53687E+00	-6.98231E+00
3.62063E+00	-1.37167E+00	4.53680E+00	-6.95949E+00
2.20726E+00	-3.15878E+00	4.53616E+00	-6.93668E+00
4.29471E-02	-3.83519E+00	4.53494E+00	-6.91331E+00
-2.11611E+00	-3.17721E+00	4.53462E+00	-6.88879E+00
-3.52207E+00	-1.42508E+00	4.53553E+00	-6.86545E+00
-3.69511E+00	8.04129E-01	4.53585E+00	-6.84292E+00
-2.58685E+00	2.73395E+00	4.53583E+00	-6.82041E+00
-5.93133E-01	3.69886E+00	4.53586E+00	-6.79800E+00
1.58729E+00	3.37376E+00	4.53565E+00	-6.77593E+00
3.19746E+00	1.88351E+00	4.53510E+00	-6.75376E+00
3.68539E+00	-2.45141E-01	4.53450E+00	-6.73138E+00
2.89244E+00	-2.26892E+00	4.53413E+00	-6.70895E+00
