jMRUI Data Textfile
 
Filename: Pyr.txt
 
PointsInDataset: 2048
DatasetsInFile: 1
SamplingInterval: 5.00000E-01
ZeroOrderPhase: 0E0
BeginTime: 0E0
TransmitterFrequency: 1.27740E+08
MagneticField: 0E0
TypeOfNucleus: 0E0
NameOfPatient: 
DateOfExperiment: 
Spectrometer: Vespa-Simulation
AdditionalInfo: see 'readme' file for Vespa-Simulation output synopsis
 
  
Signal and FFT 
sig(real)	sig(imag)	fft(real)	fft(imag)
Signal 1 out of 1 in file
3.00000E+00	5.20417E-18	1.51708E+00	-2.95468E+00
1.76235E+00	-2.41033E+00	1.51709E+00	-2.94339E+00
-9.01279E-01	-2.83190E+00	1.51713E+00	-2.93221E+00
-2.80473E+00	-9.39469E-01	1.51707E+00	-2.92126E+00
-2.40244E+00	1.70155E+00	1.51698E+00	-2.91022E+00
-4.42155E-02	2.92981E+00	1.51688E+00	-2.89936E+00
2.32796E+00	1.75664E+00	1.51674E+00	-2.88845E+00
2.77892E+00	-8.38456E-01	1.51674E+00	-2.87754E+00
9.58820E-01	-2.72526E+00	1.51680E+00	-2.86692E+00
-1.62633E+00	-2.37131E+00	1.51664E+00	-2.85641E+00
-2.86060E+00	-8.63619E-02	1.51642E+00	-2.84577E+00
-1.74985E+00	2.24760E+00	1.51635E+00	-2.83514E+00
7.77881E-01	2.72626E+00	1.51633E+00	-2.82470E+00
2.64736E+00	9.76552E-01	1.51619E+00	-2.81439E+00
2.33980E+00	-1.55333E+00	1.51597E+00	-2.80396E+00
1.26502E-01	-2.79240E+00	1.51594E+00	-2.79356E+00
-2.16923E+00	-1.74202E+00	1.51595E+00	-2.78343E+00
-2.67393E+00	7.19509E-01	1.51566E+00	-2.77345E+00
-9.92731E-01	2.57102E+00	1.51517E+00	-2.76309E+00
1.48250E+00	2.30795E+00	1.51518E+00	-2.75246E+00
2.72520E+00	1.64698E-01	1.51570E+00	-2.74234E+00
1.73324E+00	-2.09280E+00	1.51580E+00	-2.73284E+00
-6.63255E-01	-2.62197E+00	1.51567E+00	-2.72309E+00
-2.49624E+00	-1.00739E+00	1.51536E+00	-2.71364E+00
-2.27579E+00	1.41380E+00	1.51469E+00	-2.70363E+00
-2.01000E-01	2.65901E+00	1.51468E+00	-2.69331E+00
2.01829E+00	1.72352E+00	1.51505E+00	-2.68350E+00
2.57040E+00	-6.09102E-01	1.51522E+00	-2.67418E+00
1.02060E+00	-2.42299E+00	1.51497E+00	-2.66484E+00
-1.34717E+00	-2.24339E+00	1.51474E+00	-2.65530E+00
-2.59383E+00	-2.35497E-01	1.51457E+00	-2.64580E+00
-1.71295E+00	1.94566E+00	1.51442E+00	-2.63634E+00
5.56976E-01	2.51923E+00	1.51421E+00	-2.62686E+00
2.35125E+00	1.03244E+00	1.51416E+00	-2.61733E+00
2.21074E+00	-1.28261E+00	1.51420E+00	-2.60795E+00
2.68206E-01	-2.52967E+00	1.51427E+00	-2.59870E+00
-1.87488E+00	-1.70156E+00	1.51429E+00	-2.58961E+00
-2.46850E+00	5.06805E-01	1.51420E+00	-2.58057E+00
-1.04294E+00	2.28102E+00	1.51408E+00	-2.57147E+00
1.22001E+00	2.17792E+00	1.51409E+00	-2.56245E+00
2.46653E+00	2.99224E-01	1.51383E+00	-2.55360E+00
1.68936E+00	-1.80595E+00	1.51368E+00	-2.54437E+00
-4.58556E-01	-2.41821E+00	1.51380E+00	-2.53538E+00
-2.21229E+00	-1.05214E+00	1.51394E+00	-2.52659E+00
-2.14495E+00	1.15936E+00	1.51383E+00	-2.51802E+00
-3.28548E-01	2.40441E+00	1.51367E+00	-2.50920E+00
1.73879E+00	1.67645E+00	1.51362E+00	-2.50052E+00
2.36839E+00	-4.12177E-01	1.51357E+00	-2.49182E+00
1.06013E+00	-2.14501E+00	1.51343E+00	-2.48332E+00
-1.10061E+00	-2.11185E+00	1.51329E+00	-2.47453E+00
-2.34331E+00	-3.56307E-01	1.51335E+00	-2.46601E+00
-1.66286E+00	1.67340E+00	1.51342E+00	-2.45745E+00
3.67653E-01	2.31905E+00	1.51336E+00	-2.44929E+00
2.07920E+00	1.06695E+00	1.51331E+00	-2.44067E+00
2.07865E+00	-1.04376E+00	1.51325E+00	-2.43265E+00
3.82516E-01	-2.28323E+00	1.51327E+00	-2.42442E+00
-1.60975E+00	-1.64860E+00	1.51271E+00	-2.41622E+00
-2.27021E+00	3.24862E-01	1.51263E+00	-2.40782E+00
-1.07264E+00	2.01482E+00	1.51244E+00	-2.39944E+00
9.88691E-01	2.04540E+00	1.51254E+00	-2.39122E+00
2.22417E+00	4.07226E-01	1.51240E+00	-2.38311E+00
1.63376E+00	-1.54778E+00	1.51233E+00	-2.37498E+00
-2.83793E-01	-2.22188E+00	1.51222E+00	-2.36682E+00
-1.95188E+00	-1.07721E+00	1.51227E+00	-2.35875E+00
-2.01210E+00	9.35435E-01	1.51221E+00	-2.35078E+00
-4.30487E-01	2.16612E+00	1.51219E+00	-2.34278E+00
1.48748E+00	1.61835E+00	1.51223E+00	-2.33483E+00
2.17407E+00	-2.44431E-01	1.51236E+00	-2.32705E+00
1.08075E+00	-1.89034E+00	1.51233E+00	-2.31946E+00
-8.83855E-01	-1.97883E+00	1.51209E+00	-2.31187E+00
-2.10910E+00	-4.52316E-01	1.51164E+00	-2.30405E+00
-1.60239E+00	1.42885E+00	1.51157E+00	-2.29584E+00
2.06629E-01	2.12681E+00	1.51190E+00	-2.28808E+00
1.83017E+00	1.08336E+00	1.51202E+00	-2.28058E+00
1.94554E+00	-8.34032E-01	1.51201E+00	-2.27309E+00
4.72794E-01	-2.05309E+00	1.51203E+00	-2.26563E+00
-1.37177E+00	-1.58598E+00	1.51195E+00	-2.25829E+00
-2.08009E+00	1.70472E-01	1.51175E+00	-2.25091E+00
-1.08497E+00	1.77139E+00	1.51154E+00	-2.24345E+00
7.85864E-01	1.91231E+00	1.51141E+00	-2.23597E+00
1.99808E+00	4.92029E-01	1.51128E+00	-2.22856E+00
1.56908E+00	-1.31631E+00	1.51113E+00	-2.22112E+00
-1.35849E-01	-2.03393E+00	1.51104E+00	-2.21367E+00
-1.71393E+00	-1.08572E+00	1.51105E+00	-2.20625E+00
-1.87916E+00	7.39257E-01	1.51107E+00	-2.19897E+00
-5.09943E-01	1.94408E+00	1.51111E+00	-2.19177E+00
1.26241E+00	1.55175E+00	1.51091E+00	-2.18469E+00
1.98835E+00	-1.02656E-01	1.51074E+00	-2.17722E+00
1.08556E+00	-1.65784E+00	1.51105E+00	-2.16991E+00
-6.94285E-01	-1.84608E+00	1.51109E+00	-2.16314E+00
-1.89108E+00	-5.26643E-01	1.51088E+00	-2.15597E+00
-1.53407E+00	1.20997E+00	1.51101E+00	-2.14886E+00
7.09706E-02	1.94334E+00	1.51113E+00	-2.14199E+00
1.60306E+00	1.08458E+00	1.51099E+00	-2.13528E+00
1.81313E+00	-6.50797E-01	1.51072E+00	-2.12826E+00
5.42228E-01	-1.83906E+00	1.51072E+00	-2.12124E+00
-1.15907E+00	-1.51600E+00	1.51075E+00	-2.11440E+00
-1.89891E+00	4.06899E-02	1.51059E+00	-2.10769E+00
-1.08286E+00	1.54955E+00	1.51034E+00	-2.10071E+00
6.08868E-01	1.78029E+00	1.51042E+00	-2.09370E+00
1.78805E+00	5.56625E-01	1.51059E+00	-2.08699E+00
1.49760E+00	-1.10962E+00	1.51051E+00	-2.08050E+00
-1.17154E-02	-1.85508E+00	1.51017E+00	-2.07372E+00
-1.49735E+00	-1.08034E+00	1.51022E+00	-2.06676E+00
-1.74760E+00	5.68403E-01	1.51031E+00	-2.06011E+00
-5.69988E-01	1.73800E+00	1.51039E+00	-2.05355E+00
1.06156E+00	1.47893E+00	1.51030E+00	-2.04700E+00
1.81185E+00	1.58791E-02	1.51033E+00	-2.04044E+00
1.07712E+00	-1.44640E+00	1.51030E+00	-2.03397E+00
-5.29314E-01	-1.71510E+00	1.51025E+00	-2.02759E+00
-1.68894E+00	-5.82248E-01	1.50997E+00	-2.02109E+00
-1.45996E+00	1.01494E+00	1.50997E+00	-2.01446E+00
-4.21914E-02	1.76922E+00	1.51002E+00	-2.00802E+00
1.39666E+00	1.07326E+00	1.51005E+00	-2.00176E+00
1.68277E+00	-4.91670E-01	1.50977E+00	-1.99544E+00
5.93498E-01	-1.64085E+00	1.50970E+00	-1.98891E+00
-9.69647E-01	-1.44078E+00	1.50968E+00	-1.98253E+00
-1.72720E+00	-6.73127E-02	1.50971E+00	-1.97624E+00
-1.06872E+00	1.34818E+00	1.50950E+00	-1.96994E+00
4.55383E-01	1.65064E+00	1.50957E+00	-1.96344E+00
1.59370E+00	6.03825E-01	1.50975E+00	-1.95717E+00
1.42135E+00	-9.25741E-01	1.50995E+00	-1.95129E+00
9.11749E-02	-1.68580E+00	1.50943E+00	-1.94534E+00
-1.30089E+00	-1.06357E+00	1.50929E+00	-1.93867E+00
-1.61873E+00	4.20370E-01	1.50967E+00	-1.93240E+00
-6.13168E-01	1.54751E+00	1.50998E+00	-1.92667E+00
8.83148E-01	1.40173E+00	1.50945E+00	-1.92104E+00
1.64501E+00	1.13869E-01	1.50913E+00	-1.91444E+00
1.05784E+00	-1.25479E+00	1.50948E+00	-1.90823E+00
-3.86646E-01	-1.58706E+00	1.50984E+00	-1.90258E+00
-1.50226E+00	-6.21658E-01	1.50911E+00	-1.89722E+00
-1.38196E+00	8.41799E-01	1.50858E+00	-1.89028E+00
-1.35480E-01	1.60484E+00	1.50934E+00	-1.88396E+00
1.20982E+00	1.05161E+00	1.51012E+00	-1.87878E+00
1.55561E+00	-3.54274E-01	1.50840E+00	-1.87415E+00
6.29193E-01	-1.45797E+00	1.50789E+00	-1.86522E+00
-8.01791E-01	-1.36200E+00	1.51095E+00	-1.86041E+00
-1.56529E+00	-1.55993E-01	1.50901E+00	-1.85713E+00
-1.04485E+00	1.16600E+00	1.50751E+00	-1.84847E+00
3.23028E-01	1.52444E+00	1.50995E+00	-1.84278E+00
1.41457E+00	6.35986E-01	1.50949E+00	-1.83829E+00
1.34196E+00	-7.62932E-01	1.50868E+00	-1.83258E+00
1.75350E-01	-1.52638E+00	1.50855E+00	-1.82593E+00
-1.12336E+00	-1.03754E+00	1.50943E+00	-1.82047E+00
-1.49354E+00	2.92974E-01	1.50909E+00	-1.81540E+00
-6.41980E-01	1.37209E+00	1.50860E+00	-1.80972E+00
7.25277E-01	1.32182E+00	1.50845E+00	-1.80353E+00
1.48808E+00	1.93772E-01	1.50899E+00	-1.79798E+00
1.02984E+00	-1.08176E+00	1.50878E+00	-1.79279E+00
-2.64167E-01	-1.46290E+00	1.50841E+00	-1.78721E+00
-1.33055E+00	-6.47126E-01	1.50820E+00	-1.78123E+00
-1.30160E+00	6.88801E-01	1.50859E+00	-1.77553E+00
-2.11197E-01	1.45040E+00	1.50867E+00	-1.77027E+00
1.04126E+00	1.02171E+00	1.50844E+00	-1.76498E+00
1.43257E+00	-2.36398E-01	1.50813E+00	-1.75916E+00
6.51620E-01	-1.28987E+00	1.50848E+00	-1.75345E+00
-6.53555E-01	-1.28127E+00	1.50865E+00	-1.74821E+00
-1.41336E+00	-2.27573E-01	1.50865E+00	-1.74291E+00
-1.01311E+00	1.00188E+00	1.50860E+00	-1.73754E+00
2.09726E-01	1.40254E+00	1.50877E+00	-1.73229E+00
1.25007E+00	6.55408E-01	1.50860E+00	-1.72731E+00
1.26093E+00	-6.19355E-01	1.50819E+00	-1.72204E+00
2.43106E-01	-1.37693E+00	1.50785E+00	-1.71648E+00
-9.63484E-01	-1.00419E+00	1.50790E+00	-1.71085E+00
-1.37281E+00	1.84205E-01	1.50797E+00	-1.70553E+00
-6.58447E-01	1.21119E+00	1.50796E+00	-1.70017E+00
5.86256E-01	1.24057E+00	1.50803E+00	-1.69481E+00
1.34113E+00	2.57737E-01	1.50826E+00	-1.68958E+00
9.94913E-01	-9.26121E-01	1.50828E+00	-1.68465E+00
-1.59637E-01	-1.34341E+00	1.50803E+00	-1.67942E+00
-1.17314E+00	-6.60914E-01	1.50807E+00	-1.67414E+00
-1.22016E+00	5.54305E-01	1.50819E+00	-1.66895E+00
-2.71418E-01	1.30596E+00	1.50823E+00	-1.66401E+00
8.89770E-01	9.85301E-01	1.50811E+00	-1.65896E+00
1.31433E+00	-1.36077E-01	1.50801E+00	-1.65387E+00
6.62762E-01	-1.13593E+00	1.50800E+00	-1.64871E+00
-5.23330E-01	-1.19979E+00	1.50801E+00	-1.64376E+00
-1.27140E+00	-2.84340E-01	1.50787E+00	-1.63876E+00
-9.75325E-01	8.54470E-01	1.50772E+00	-1.63371E+00
1.13575E-01	1.28558E+00	1.50763E+00	-1.62856E+00
1.09961E+00	6.63951E-01	1.50764E+00	-1.62350E+00
1.17944E+00	-4.93380E-01	1.50763E+00	-1.61845E+00
2.96449E-01	-1.23745E+00	1.50768E+00	-1.61347E+00
-8.20084E-01	-9.65114E-01	1.50763E+00	-1.60854E+00
-1.25717E+00	9.19465E-02	1.50762E+00	-1.60351E+00
-6.64643E-01	1.06409E+00	1.50774E+00	-1.59864E+00
4.64501E-01	1.15910E+00	1.50761E+00	-1.59389E+00
1.20414E+00	3.07700E-01	1.50748E+00	-1.58874E+00
9.54635E-01	-7.86654E-01	1.50779E+00	-1.58390E+00
-7.12430E-02	-1.22911E+00	1.50771E+00	-1.57928E+00
-1.02938E+00	-6.64794E-01	1.50756E+00	-1.57448E+00
