jMRUI Data Textfile
 
Filename: Tau.txt
 
PointsInDataset: 2048
DatasetsInFile: 1
SamplingInterval: 5.00000E-01
ZeroOrderPhase: 0E0
BeginTime: 0E0
TransmitterFrequency: 1.27740E+08
MagneticField: 0E0
TypeOfNucleus: 0E0
NameOfPatient: 
DateOfExperiment: 
Spectrometer: Vespa-Simulation
AdditionalInfo: see 'readme' file for Vespa-Simulation output synopsis
 
  
Signal and FFT 
sig(real)	sig(imag)	fft(real)	fft(imag)
Signal 1 out of 1 in file
3.98534E+00	-4.29651E-07	2.03987E+00	-7.11375E+00
3.38700E+00	-2.06954E+00	2.03929E+00	-7.07177E+00
1.80151E+00	-3.51318E+00	2.03880E+00	-7.03020E+00
-2.92570E-01	-3.91125E+00	2.03832E+00	-6.98915E+00
-2.27101E+00	-3.15999E+00	2.03782E+00	-6.94849E+00
-3.55281E+00	-1.49859E+00	2.03739E+00	-6.90827E+00
-3.77340E+00	5.67693E-01	2.03697E+00	-6.86852E+00
-2.88977E+00	2.42324E+00	2.03659E+00	-6.82922E+00
-1.18682E+00	3.52815E+00	2.03616E+00	-6.79044E+00
8.15025E-01	3.57765E+00	2.03562E+00	-6.75201E+00
2.52093E+00	2.58695E+00	2.03510E+00	-6.71391E+00
3.44076E+00	8.77963E-01	2.03460E+00	-6.67615E+00
3.33180E+00	-1.02573E+00	2.03418E+00	-6.63875E+00
2.26291E+00	-2.56113E+00	2.03381E+00	-6.60179E+00
5.83069E-01	-3.29448E+00	2.03342E+00	-6.56528E+00
-1.19275E+00	-3.04521E+00	2.03300E+00	-6.52909E+00
-2.54318E+00	-1.92929E+00	2.03260E+00	-6.49329E+00
-3.09525E+00	-3.12139E-01	2.03217E+00	-6.45785E+00
-2.72832E+00	1.31112E+00	2.03173E+00	-6.42271E+00
-1.59752E+00	2.46874E+00	2.03135E+00	-6.38791E+00
-7.36992E-02	2.85076E+00	2.03098E+00	-6.35349E+00
1.37808E+00	2.39220E+00	2.03059E+00	-6.31939E+00
2.34166E+00	1.27825E+00	2.03024E+00	-6.28561E+00
2.57008E+00	-1.25566E-01	2.02987E+00	-6.25219E+00
2.04804E+00	-1.39305E+00	2.02953E+00	-6.21905E+00
9.81046E-01	-2.16764E+00	2.02924E+00	-6.18628E+00
-2.80894E-01	-2.26318E+00	2.02889E+00	-6.15387E+00
-1.35763E+00	-1.70671E+00	2.02849E+00	-6.12172E+00
-1.95397E+00	-7.14003E-01	2.02813E+00	-6.08982E+00
-1.94054E+00	3.89614E-01	2.02778E+00	-6.05823E+00
-1.37829E+00	1.27536E+00	2.02747E+00	-6.02689E+00
-4.83481E-01	1.70912E+00	2.02723E+00	-5.99591E+00
4.51193E-01	1.61261E+00	2.02696E+00	-5.96525E+00
1.15154E+00	1.07170E+00	2.02667E+00	-5.93490E+00
1.44234E+00	2.93892E-01	2.02634E+00	-5.90481E+00
1.28945E+00	-4.66996E-01	2.02601E+00	-5.87496E+00
7.94431E-01	-9.92829E-01	2.02570E+00	-5.84538E+00
1.47758E-01	-1.16320E+00	2.02537E+00	-5.81609E+00
-4.40264E-01	-9.80259E-01	2.02504E+00	-5.78697E+00
-8.06927E-01	-5.52251E-01	2.02480E+00	-5.75813E+00
-8.81187E-01	-4.55895E-02	2.02457E+00	-5.72959E+00
-6.93089E-01	3.75765E-01	2.02437E+00	-5.70133E+00
-3.49174E-01	6.02126E-01	2.02412E+00	-5.67342E+00
1.39139E-02	6.05274E-01	2.02373E+00	-5.64574E+00
2.79459E-01	4.34591E-01	2.02330E+00	-5.61813E+00
3.86968E-01	1.87326E-01	2.02301E+00	-5.59065E+00
3.43606E-01	-3.36592E-02	2.02284E+00	-5.56349E+00
2.09799E-01	-1.58213E-01	2.02269E+00	-5.53663E+00
6.70681E-02	-1.69805E-01	2.02253E+00	-5.51009E+00
-1.79620E-02	-1.03193E-01	2.02227E+00	-5.48382E+00
-1.93861E-02	-2.20614E-02	2.02193E+00	-5.45771E+00
4.15218E-02	1.29186E-02	2.02162E+00	-5.43174E+00
1.10304E-01	-2.78041E-02	2.02135E+00	-5.40595E+00
1.26965E-01	-1.29535E-01	2.02113E+00	-5.38038E+00
5.54062E-02	-2.40008E-01	2.02096E+00	-5.35506E+00
-9.75232E-02	-2.92710E-01	2.02076E+00	-5.33000E+00
-2.81277E-01	-2.37249E-01	2.02055E+00	-5.30515E+00
-4.19718E-01	-6.43836E-02	2.02032E+00	-5.28051E+00
-4.41395E-01	1.84681E-01	2.02007E+00	-5.25603E+00
-3.10252E-01	4.29085E-01	2.01986E+00	-5.23179E+00
-4.47559E-02	5.75966E-01	2.01956E+00	-5.20777E+00
2.82710E-01	5.55253E-01	2.01922E+00	-5.18382E+00
5.67004E-01	3.48703E-01	2.01900E+00	-5.15997E+00
7.05413E-01	2.02929E-03	2.01887E+00	-5.13637E+00
6.34616E-01	-3.85270E-01	2.01878E+00	-5.11302E+00
3.56375E-01	-6.90062E-01	2.01869E+00	-5.08998E+00
-5.79632E-02	-8.06099E-01	2.01845E+00	-5.06717E+00
-4.86534E-01	-6.81109E-01	2.01814E+00	-5.04444E+00
-7.94427E-01	-3.37777E-01	2.01783E+00	-5.02180E+00
-8.77400E-01	1.29414E-01	2.01755E+00	-4.99929E+00
-6.97433E-01	5.81426E-01	2.01736E+00	-4.97687E+00
-2.97963E-01	8.77432E-01	2.01733E+00	-4.95469E+00
2.06775E-01	9.19925E-01	2.01729E+00	-4.93284E+00
6.65763E-01	6.87147E-01	2.01716E+00	-4.91123E+00
9.37638E-01	2.42125E-01	2.01692E+00	-4.88980E+00
9.35359E-01	-2.85027E-01	2.01657E+00	-4.86845E+00
6.54413E-01	-7.36360E-01	2.01621E+00	-4.84712E+00
1.75410E-01	-9.74740E-01	2.01596E+00	-4.82586E+00
-3.59751E-01	-9.26299E-01	2.01578E+00	-4.80474E+00
-7.91093E-01	-6.03715E-01	2.01575E+00	-4.78379E+00
-9.89469E-01	-1.02669E-01	2.01578E+00	-4.76318E+00
-8.95996E-01	4.27416E-01	2.01571E+00	-4.74279E+00
-5.39701E-01	8.28813E-01	2.01558E+00	-4.72264E+00
-2.82651E-02	9.83436E-01	2.01524E+00	-4.70258E+00
4.85350E-01	8.48152E-01	2.01489E+00	-4.68246E+00
8.49384E-01	4.66828E-01	2.01467E+00	-4.66240E+00
9.58960E-01	-4.40979E-02	2.01452E+00	-4.64248E+00
7.86687E-01	-5.31781E-01	2.01459E+00	-4.62266E+00
3.89248E-01	-8.53500E-01	2.01483E+00	-4.60341E+00
-1.11366E-01	-9.18865E-01	2.01453E+00	-4.58452E+00
-5.65826E-01	-7.15511E-01	2.01402E+00	-4.56533E+00
-8.42560E-01	-3.10640E-01	2.01370E+00	-4.54607E+00
-8.66281E-01	1.71342E-01	2.01357E+00	-4.52689E+00
-6.38397E-01	5.87336E-01	2.01366E+00	-4.50801E+00
-2.34093E-01	8.18501E-01	2.01364E+00	-4.48954E+00
2.22575E-01	8.04446E-01	2.01326E+00	-4.47116E+00
5.96909E-01	5.58730E-01	2.01290E+00	-4.45249E+00
7.83629E-01	1.62016E-01	2.01291E+00	-4.43391E+00
7.36528E-01	-2.64345E-01	2.01308E+00	-4.41569E+00
4.79450E-01	-5.95673E-01	2.01319E+00	-4.39783E+00
9.62136E-02	-7.40424E-01	2.01312E+00	-4.38020E+00
-2.96599E-01	-6.65464E-01	2.01282E+00	-4.36268E+00
-5.85156E-01	-4.02957E-01	2.01238E+00	-4.34507E+00
-6.91405E-01	-3.77609E-02	2.01198E+00	-4.32733E+00
-5.93871E-01	3.19771E-01	2.01184E+00	-4.30955E+00
-3.31071E-01	5.67131E-01	2.01202E+00	-4.29211E+00
1.28442E-02	6.38964E-01	2.01201E+00	-4.27514E+00
3.34771E-01	5.23910E-01	2.01166E+00	-4.25816E+00
5.43480E-01	2.65021E-01	2.01141E+00	-4.24099E+00
5.85256E-01	-5.56245E-02	2.01135E+00	-4.22391E+00
4.57271E-01	-3.42776E-01	2.01146E+00	-4.20701E+00
2.05538E-01	-5.16025E-01	2.01169E+00	-4.19054E+00
-9.10350E-02	-5.32100E-01	2.01147E+00	-4.17444E+00
-3.45117E-01	-3.95150E-01	2.01098E+00	-4.15801E+00
-4.86464E-01	-1.52823E-01	2.01077E+00	-4.14148E+00
-4.80942E-01	1.19789E-01	2.01063E+00	-4.12512E+00
-3.38266E-01	3.43155E-01	2.01061E+00	-4.10884E+00
-1.06697E-01	4.56250E-01	2.01070E+00	-4.09281E+00
1.42837E-01	4.32812E-01	2.01068E+00	-4.07707E+00
3.38190E-01	2.86904E-01	2.01048E+00	-4.06137E+00
4.26544E-01	6.66789E-02	2.01026E+00	-4.04571E+00
3.88343E-01	-1.61188E-01	2.00997E+00	-4.03004E+00
2.41010E-01	-3.31334E-01	2.00979E+00	-4.01431E+00
3.20753E-02	-3.98181E-01	2.00979E+00	-3.99872E+00
-1.75835E-01	-3.47801E-01	2.00984E+00	-3.98337E+00
-3.23511E-01	-2.00227E-01	2.00982E+00	-3.96820E+00
-3.71670E-01	-2.12624E-03	2.00973E+00	-3.95312E+00
-3.11133E-01	1.87678E-01	2.00960E+00	-3.93812E+00
-1.64006E-01	3.15389E-01	2.00945E+00	-3.92316E+00
2.39655E-02	3.47220E-01	2.00934E+00	-3.90828E+00
1.97427E-01	2.78065E-01	2.00921E+00	-3.89352E+00
3.07363E-01	1.31728E-01	2.00905E+00	-3.87879E+00
3.24779E-01	-4.69611E-02	2.00896E+00	-3.86413E+00
2.48120E-01	-2.05657E-01	2.00887E+00	-3.84960E+00
1.02694E-01	-2.99611E-01	2.00875E+00	-3.83513E+00
-6.74549E-02	-3.04097E-01	2.00871E+00	-3.82071E+00
-2.12691E-01	-2.20762E-01	2.00870E+00	-3.80650E+00
-2.92079E-01	-7.63175E-02	2.00857E+00	-3.79240E+00
-2.84798E-01	8.58928E-02	2.00842E+00	-3.77834E+00
-1.95445E-01	2.18665E-01	2.00819E+00	-3.76433E+00
-5.20462E-02	2.84576E-01	2.00800E+00	-3.75020E+00
1.02602E-01	2.66424E-01	2.00806E+00	-3.73616E+00
2.23581E-01	1.71631E-01	2.00817E+00	-3.72244E+00
2.76799E-01	2.95086E-02	2.00812E+00	-3.70888E+00
2.48541E-01	-1.17687E-01	2.00796E+00	-3.69536E+00
1.48928E-01	-2.27279E-01	2.00774E+00	-3.68183E+00
8.47783E-03	-2.68409E-01	2.00759E+00	-3.66825E+00
-1.31174E-01	-2.30747E-01	2.00754E+00	-3.65477E+00
-2.29562E-01	-1.27020E-01	2.00752E+00	-3.64144E+00
-2.59089E-01	1.11762E-02	2.00749E+00	-3.62823E+00
-2.12760E-01	1.42949E-01	2.00738E+00	-3.61511E+00
-1.05777E-01	2.30184E-01	2.00724E+00	-3.60200E+00
2.94051E-02	2.48592E-01	2.00715E+00	-3.58891E+00
1.52847E-01	1.94427E-01	2.00712E+00	-3.57592E+00
2.28960E-01	8.51555E-02	2.00709E+00	-3.56305E+00
2.36773E-01	-4.61316E-02	2.00707E+00	-3.55031E+00
1.75708E-01	-1.60733E-01	2.00689E+00	-3.53766E+00
6.52591E-02	-2.25767E-01	2.00668E+00	-3.52491E+00
-6.11938E-02	-2.23623E-01	2.00662E+00	-3.51211E+00
-1.66473E-01	-1.56726E-01	2.00677E+00	-3.49953E+00
-2.20596E-01	-4.62710E-02	2.00678E+00	-3.48720E+00
-2.09272E-01	7.44366E-02	2.00671E+00	-3.47492E+00
-1.37678E-01	1.70057E-01	2.00653E+00	-3.46268E+00
-2.83737E-02	2.13583E-01	2.00632E+00	-3.45037E+00
8.57897E-02	1.93969E-01	2.00623E+00	-3.43804E+00
1.71562E-01	1.18859E-01	2.00624E+00	-3.42587E+00
2.04987E-01	1.17883E-02	2.00620E+00	-3.41379E+00
1.78080E-01	-9.52261E-02	2.00618E+00	-3.40180E+00
1.00600E-01	-1.71204E-01	2.00615E+00	-3.38991E+00
-3.36549E-03	-1.95202E-01	2.00604E+00	-3.37808E+00
-1.02880E-01	-1.62025E-01	2.00592E+00	-3.36629E+00
-1.69353E-01	-8.31834E-02	2.00579E+00	-3.35451E+00
-1.84715E-01	1.70275E-02	2.00570E+00	-3.34274E+00
-1.46264E-01	1.08982E-01	2.00564E+00	-3.33108E+00
-6.68684E-02	1.66477E-01	2.00560E+00	-3.31944E+00
2.92646E-02	1.74082E-01	2.00559E+00	-3.30791E+00
1.13937E-01	1.31213E-01	2.00558E+00	-3.29654E+00
1.63164E-01	5.17731E-02	2.00546E+00	-3.28519E+00
1.63866E-01	-4.03152E-02	2.00531E+00	-3.27383E+00
1.17229E-01	-1.18249E-01	2.00521E+00	-3.26249E+00
3.79077E-02	-1.60042E-01	2.00514E+00	-3.25117E+00
-5.05252E-02	-1.54604E-01	2.00516E+00	-3.23995E+00
-1.22521E-01	-1.04555E-01	2.00515E+00	-3.22884E+00
-1.57753E-01	-2.51260E-02	2.00511E+00	-3.21781E+00
-1.46737E-01	6.04106E-02	2.00507E+00	-3.20681E+00
-9.32596E-02	1.27437E-01	2.00500E+00	-3.19593E+00
-1.30947E-02	1.56904E-01	2.00488E+00	-3.18500E+00
7.05686E-02	1.40581E-01	2.00483E+00	-3.17407E+00
1.33664E-01	8.32669E-02	2.00486E+00	-3.16331E+00
1.57996E-01	1.36434E-03	2.00483E+00	-3.15262E+00
1.36284E-01	-8.16665E-02	2.00473E+00	-3.14199E+00
