jMRUI Data Textfile
 
Filename: Cr.txt
 
PointsInDataset: 2048
DatasetsInFile: 1
SamplingInterval: 5.00000E-01
ZeroOrderPhase: 0E0
BeginTime: 0E0
TransmitterFrequency: 1.27740E+08
MagneticField: 0E0
TypeOfNucleus: 0E0
NameOfPatient: 
DateOfExperiment: 
Spectrometer: Vespa-Simulation
AdditionalInfo: see 'readme' file for Vespa-Simulation output synopsis
 
  
Signal and FFT 
sig(real)	sig(imag)	fft(real)	fft(imag)
Signal 1 out of 1 in file
6.00000E+00	-1.04951E-16	3.22640E+00	-9.36190E+00
4.92056E+00	-1.76868E+00	3.22305E+00	-9.27409E+00
2.26293E+00	-3.05497E+00	3.21984E+00	-9.18763E+00
-8.00579E-01	-3.53558E+00	3.21674E+00	-9.10248E+00
-2.99250E+00	-3.11498E+00	3.21369E+00	-9.01861E+00
-3.52474E+00	-1.97530E+00	3.21069E+00	-8.93595E+00
-2.43492E+00	-5.44347E-01	3.20775E+00	-8.85445E+00
-5.12635E-01	6.36582E-01	3.20487E+00	-8.77411E+00
1.12913E+00	1.11987E+00	3.20200E+00	-8.69485E+00
1.61176E+00	7.56489E-01	3.19919E+00	-8.61659E+00
7.01507E-01	-2.03024E-01	3.19650E+00	-8.53934E+00
-1.11587E+00	-1.18473E+00	3.19391E+00	-8.46311E+00
-2.90966E+00	-1.53969E+00	3.19145E+00	-8.38789E+00
-3.77186E+00	-8.65577E-01	3.18909E+00	-8.31375E+00
-3.24122E+00	7.53423E-01	3.18663E+00	-8.24063E+00
-1.48759E+00	2.72409E+00	3.18412E+00	-8.16829E+00
8.07143E-01	4.17774E+00	3.18174E+00	-8.09671E+00
2.78596E+00	4.36867E+00	3.17955E+00	-8.02599E+00
3.79399E+00	3.05058E+00	3.17747E+00	-7.95619E+00
3.62180E+00	6.37683E-01	3.17547E+00	-7.88727E+00
2.52563E+00	-1.94685E+00	3.17354E+00	-7.81924E+00
1.05121E+00	-3.67957E+00	3.17160E+00	-7.75209E+00
-2.29845E-01	-3.91195E+00	3.16957E+00	-7.68573E+00
-9.42858E-01	-2.67845E+00	3.16753E+00	-7.62001E+00
-1.00927E+00	-6.79415E-01	3.16558E+00	-7.55494E+00
-6.11336E-01	1.06028E+00	3.16375E+00	-7.49058E+00
-7.04922E-02	1.69247E+00	3.16198E+00	-7.42697E+00
2.92462E-01	9.59268E-01	3.16025E+00	-7.36404E+00
2.64118E-01	-6.86752E-01	3.15857E+00	-7.30181E+00
-2.06902E-01	-2.31518E+00	3.15690E+00	-7.24025E+00
-1.00292E+00	-2.98598E+00	3.15524E+00	-7.17932E+00
-1.86810E+00	-2.21904E+00	3.15359E+00	-7.11898E+00
-2.47432E+00	-2.33025E-01	3.15197E+00	-7.05919E+00
-2.51985E+00	2.16013E+00	3.15044E+00	-6.99994E+00
-1.84529E+00	3.94608E+00	3.14903E+00	-6.94126E+00
-5.28393E-01	4.38578E+00	3.14775E+00	-6.88320E+00
1.09409E+00	3.34705E+00	3.14653E+00	-6.82580E+00
2.51256E+00	1.33650E+00	3.14528E+00	-6.76906E+00
3.22914E+00	-7.67459E-01	3.14396E+00	-6.71288E+00
2.97375E+00	-2.13645E+00	3.14256E+00	-6.65719E+00
1.85016E+00	-2.35814E+00	3.14114E+00	-6.60190E+00
3.26087E-01	-1.57923E+00	3.13977E+00	-6.54701E+00
-9.51628E-01	-3.76337E-01	3.13852E+00	-6.49254E+00
-1.44758E+00	5.58455E-01	3.13740E+00	-6.43860E+00
-9.98980E-01	7.52080E-01	3.13629E+00	-6.38521E+00
8.74235E-02	1.46835E-01	3.13514E+00	-6.33231E+00
1.16645E+00	-9.16827E-01	3.13394E+00	-6.27984E+00
1.56480E+00	-1.89686E+00	3.13268E+00	-6.22772E+00
9.24638E-01	-2.31283E+00	3.13145E+00	-6.17586E+00
-5.92049E-01	-1.94826E+00	3.13038E+00	-6.12431E+00
-2.35105E+00	-9.12584E-01	3.12950E+00	-6.07315E+00
-3.53338E+00	4.40192E-01	3.12880E+00	-6.02248E+00
-3.52902E+00	1.67592E+00	3.12823E+00	-5.97237E+00
-2.24277E+00	2.44402E+00	3.12763E+00	-5.92290E+00
-1.57188E-01	2.57905E+00	3.12681E+00	-5.87398E+00
1.88357E+00	2.11942E+00	3.12566E+00	-5.82540E+00
3.06677E+00	1.26183E+00	3.12430E+00	-5.77687E+00
2.98789E+00	2.84426E-01	3.12297E+00	-5.72832E+00
1.82763E+00	-5.34360E-01	3.12196E+00	-5.67986E+00
2.44401E-01	-9.87405E-01	3.12132E+00	-5.63185E+00
-9.59309E-01	-9.94643E-01	3.12065E+00	-5.58447E+00
-1.22859E+00	-6.32493E-01	3.11971E+00	-5.53728E+00
-5.12405E-01	-1.19927E-01	3.11897E+00	-5.49007E+00
7.35334E-01	2.51097E-01	3.11864E+00	-5.44322E+00
1.80066E+00	2.31317E-01	3.11848E+00	-5.39706E+00
2.07017E+00	-2.63216E-01	3.11812E+00	-5.35148E+00
1.32697E+00	-1.08111E+00	3.11747E+00	-5.30624E+00
-1.57805E-01	-1.86640E+00	3.11660E+00	-5.26115E+00
-1.77012E+00	-2.19835E+00	3.11561E+00	-5.21609E+00
-2.85065E+00	-1.78896E+00	3.11466E+00	-5.17105E+00
-2.99380E+00	-6.46604E-01	3.11388E+00	-5.12610E+00
-2.20730E+00	8.83281E-01	3.11330E+00	-5.08137E+00
-8.72036E-01	2.23953E+00	3.11287E+00	-5.03694E+00
4.60599E-01	2.88637E+00	3.11247E+00	-4.99285E+00
1.32200E+00	2.56476E+00	3.11205E+00	-4.94905E+00
1.51061E+00	1.42930E+00	3.11159E+00	-4.90547E+00
1.13341E+00	-7.35728E-03	3.11113E+00	-4.86207E+00
5.08094E-01	-1.10704E+00	3.11069E+00	-4.81887E+00
-8.32238E-03	-1.40798E+00	3.11023E+00	-4.77589E+00
-1.76628E-01	-8.48962E-01	3.10975E+00	-4.73304E+00
4.58780E-02	1.99615E-01	3.10929E+00	-4.69034E+00
5.21546E-01	1.11865E+00	3.10886E+00	-4.64782E+00
1.01527E+00	1.35005E+00	3.10843E+00	-4.60546E+00
1.29567E+00	6.80448E-01	3.10798E+00	-4.56324E+00
1.21414E+00	-6.43823E-01	3.10753E+00	-4.52113E+00
7.43052E-01	-2.02913E+00	3.10712E+00	-4.47912E+00
-2.36481E-02	-2.82002E+00	3.10675E+00	-4.43722E+00
-8.97230E-01	-2.61611E+00	3.10643E+00	-4.39543E+00
-1.64092E+00	-1.46417E+00	3.10618E+00	-4.35378E+00
-2.03167E+00	1.66865E-01	3.10596E+00	-4.31230E+00
-1.93106E+00	1.61158E+00	3.10572E+00	-4.27098E+00
-1.34534E+00	2.31973E+00	3.10546E+00	-4.22973E+00
-4.46349E-01	2.10088E+00	3.10522E+00	-4.18856E+00
4.69488E-01	1.18712E+00	3.10499E+00	-4.14748E+00
1.08511E+00	9.41311E-02	3.10480E+00	-4.10644E+00
1.19495E+00	-6.41922E-01	3.10469E+00	-4.06553E+00
8.06412E-01	-7.17071E-01	3.10455E+00	-4.02476E+00
1.54158E-01	-1.82728E-01	3.10436E+00	-3.98404E+00
-3.94489E-01	6.09588E-01	3.10419E+00	-3.94333E+00
-5.10470E-01	1.20083E+00	3.10406E+00	-3.90266E+00
-7.25183E-02	1.25095E+00	3.10394E+00	-3.86207E+00
7.51925E-01	6.89787E-01	3.10383E+00	-3.82149E+00
1.56535E+00	-2.70250E-01	3.10376E+00	-3.78094E+00
1.92144E+00	-1.25084E+00	3.10372E+00	-3.74046E+00
1.54653E+00	-1.88470E+00	3.10363E+00	-3.70004E+00
4.91666E-01	-1.96640E+00	3.10348E+00	-3.65954E+00
-8.67208E-01	-1.51441E+00	3.10344E+00	-3.61894E+00
-1.98922E+00	-7.31959E-01	3.10357E+00	-3.57839E+00
-2.41746E+00	9.80095E-02	3.10371E+00	-3.53799E+00
-1.99571E+00	7.27926E-01	3.10377E+00	-3.49762E+00
-9.44610E-01	1.02319E+00	3.10377E+00	-3.45723E+00
2.42915E-01	9.81925E-01	3.10369E+00	-3.41673E+00
1.03799E+00	7.07165E-01	3.10372E+00	-3.37603E+00
1.12775E+00	3.54550E-01	3.10393E+00	-3.33535E+00
5.58884E-01	7.80464E-02	3.10417E+00	-3.29476E+00
-2.97005E-01	-1.37528E-02	3.10432E+00	-3.25417E+00
-9.36526E-01	1.12155E-01	3.10443E+00	-3.21347E+00
-9.78072E-01	3.99871E-01	3.10458E+00	-3.17265E+00
-3.49491E-01	7.14116E-01	3.10476E+00	-3.13176E+00
6.80608E-01	8.79489E-01	3.10496E+00	-3.09078E+00
1.63867E+00	7.46408E-01	3.10519E+00	-3.04968E+00
2.07734E+00	2.63926E-01	3.10549E+00	-3.00848E+00
1.78584E+00	-4.73188E-01	3.10584E+00	-2.96721E+00
8.79791E-01	-1.23523E+00	3.10620E+00	-2.92590E+00
-2.66270E-01	-1.73560E+00	3.10652E+00	-2.88448E+00
-1.20225E+00	-1.75190E+00	3.10680E+00	-2.84289E+00
-1.60659E+00	-1.23684E+00	3.10713E+00	-2.80111E+00
-1.41478E+00	-3.61266E-01	3.10751E+00	-2.75917E+00
-8.18846E-01	5.42754E-01	3.10794E+00	-2.71704E+00
-1.51140E-01	1.12242E+00	3.10846E+00	-2.67481E+00
2.81528E-01	1.16683E+00	3.10896E+00	-2.63247E+00
3.30658E-01	7.11553E-01	3.10941E+00	-2.58994E+00
5.01895E-02	2.87921E-02	3.10987E+00	-2.54713E+00
-3.56354E-01	-5.00281E-01	3.11042E+00	-2.50410E+00
-6.47355E-01	-5.72901E-01	3.11103E+00	-2.46088E+00
-6.54442E-01	-1.20194E-01	3.11167E+00	-2.41747E+00
-3.45203E-01	6.49307E-01	3.11232E+00	-2.37382E+00
1.80257E-01	1.34447E+00	3.11302E+00	-2.32996E+00
7.44414E-01	1.58156E+00	3.11371E+00	-2.28587E+00
1.16512E+00	1.17639E+00	3.11438E+00	-2.24149E+00
1.31590E+00	2.42824E-01	3.11508E+00	-2.19679E+00
1.15662E+00	-8.53448E-01	3.11585E+00	-2.15180E+00
7.34670E-01	-1.66429E+00	3.11663E+00	-2.10652E+00
1.65503E-01	-1.86876E+00	3.11740E+00	-2.06093E+00
-3.98806E-01	-1.42015E+00	3.11818E+00	-2.01493E+00
-8.08838E-01	-5.59607E-01	3.11902E+00	-1.96857E+00
-9.59558E-01	3.07396E-01	3.11993E+00	-1.92182E+00
-8.27638E-01	8.07979E-01	3.12088E+00	-1.87469E+00
-4.88072E-01	7.74290E-01	3.12187E+00	-1.82715E+00
-9.61592E-02	3.09084E-01	3.12295E+00	-1.77916E+00
1.68388E-01	-2.82072E-01	3.12414E+00	-1.73076E+00
1.78994E-01	-6.52062E-01	3.12541E+00	-1.68198E+00
-7.20702E-02	-5.83782E-01	3.12673E+00	-1.63280E+00
-4.55228E-01	-8.85058E-02	3.12806E+00	-1.58318E+00
-7.51261E-01	6.10951E-01	3.12941E+00	-1.53311E+00
-7.51290E-01	1.19624E+00	3.13073E+00	-1.48253E+00
-3.65318E-01	1.40593E+00	3.13201E+00	-1.43138E+00
3.15632E-01	1.14989E+00	3.13331E+00	-1.37954E+00
1.04159E+00	5.35984E-01	3.13476E+00	-1.32699E+00
1.50795E+00	-1.93846E-01	3.13646E+00	-1.27388E+00
1.49697E+00	-7.79198E-01	3.13824E+00	-1.22029E+00
9.87863E-01	-1.04910E+00	3.14002E+00	-1.16612E+00
1.78150E-01	-9.76946E-01	3.14179E+00	-1.11130E+00
-6.00224E-01	-6.66265E-01	3.14355E+00	-1.05576E+00
-1.03319E+00	-2.85959E-01	3.14532E+00	-9.99397E-01
-9.72288E-01	7.85395E-03	3.14720E+00	-9.42162E-01
-5.04328E-01	1.28386E-01	3.14927E+00	-8.84083E-01
9.32920E-02	7.58578E-02	3.15153E+00	-8.25227E-01
4.90840E-01	-8.07337E-02	3.15394E+00	-7.65621E-01
4.70311E-01	-2.40447E-01	3.15642E+00	-7.05255E-01
3.36013E-02	-3.08796E-01	3.15889E+00	-6.44062E-01
-5.98925E-01	-2.26751E-01	3.16128E+00	-5.81917E-01
-1.09827E+00	1.25706E-02	3.16362E+00	-5.18639E-01
-1.18970E+00	3.59213E-01	3.16606E+00	-4.54091E-01
-7.87585E-01	7.15231E-01	3.16881E+00	-3.88265E-01
-3.65588E-02	9.58559E-01	3.17197E+00	-3.21429E-01
7.59034E-01	9.82375E-01	3.17516E+00	-2.53701E-01
1.27982E+00	7.39514E-01	3.17828E+00	-1.84599E-01
1.33781E+00	2.74152E-01	3.18173E+00	-1.14031E-01
9.54315E-01	-2.78810E-01	3.18556E+00	-4.22889E-02
3.35977E-01	-7.35599E-01	3.18953E+00	3.05772E-02
-2.33279E-01	-9.35910E-01	3.19348E+00	1.04759E-01
-5.27701E-01	-8.15853E-01	3.19743E+00	1.80455E-01
-4.75800E-01	-4.45089E-01	3.20142E+00	2.57796E-01
-1.76193E-01	-4.17734E-03	3.20549E+00	3.36925E-01
1.67307E-01	2.94268E-01	3.20978E+00	4.17974E-01
3.52549E-01	3.06875E-01	3.21443E+00	5.00949E-01
2.73534E-01	3.40527E-02	3.21946E+00	5.85771E-01
-3.98192E-02	-3.72499E-01	3.22477E+00	6.72466E-01
-4.48304E-01	-6.78402E-01	3.23029E+00	7.61188E-01
-7.75451E-01	-6.81480E-01	3.23608E+00	8.52084E-01
