jMRUI Data Textfile
 
Filename: ETA.txt
 
PointsInDataset: 2048
DatasetsInFile: 1
SamplingInterval: 5.00000E-01
ZeroOrderPhase: 0E0
BeginTime: 0E0
TransmitterFrequency: 1.27740E+08
MagneticField: 0E0
TypeOfNucleus: 0E0
NameOfPatient: 
DateOfExperiment: 
Spectrometer: Vespa-Simulation
AdditionalInfo: see 'readme' file for Vespa-Simulation output synopsis
 
  
Signal and FFT 
sig(real)	sig(imag)	fft(real)	fft(imag)
Signal 1 out of 1 in file
3.66798E+00	8.12502E-05	1.97601E+00	-7.97691E+00
3.18934E+00	-1.69527E+00	1.97367E+00	-7.91696E+00
1.95331E+00	-2.89443E+00	1.97140E+00	-7.85792E+00
3.47292E-01	-3.29344E+00	1.96917E+00	-7.79976E+00
-1.15113E+00	-2.85279E+00	1.96699E+00	-7.74246E+00
-2.13735E+00	-1.79543E+00	1.96486E+00	-7.68599E+00
-2.40941E+00	-5.13743E-01	1.96279E+00	-7.63033E+00
-2.01907E+00	5.77382E-01	1.96078E+00	-7.57548E+00
-1.22983E+00	1.18576E+00	1.95881E+00	-7.52141E+00
-4.01703E-01	1.23284E+00	1.95689E+00	-7.46810E+00
1.50913E-01	8.59803E-01	1.95503E+00	-7.41554E+00
2.74098E-01	3.51138E-01	1.95321E+00	-7.36371E+00
2.03844E-02	8.64541E-03	1.95144E+00	-7.31262E+00
-3.88434E-01	2.61068E-02	1.94969E+00	-7.26223E+00
-6.63810E-01	4.12706E-01	1.94797E+00	-7.21251E+00
-5.76287E-01	9.93093E-01	1.94630E+00	-7.16344E+00
-5.50554E-02	1.48192E+00	1.94468E+00	-7.11503E+00
7.76933E-01	1.60224E+00	1.94311E+00	-7.06726E+00
1.64513E+00	1.20123E+00	1.94158E+00	-7.02014E+00
2.22581E+00	3.18393E-01	1.94006E+00	-6.97365E+00
2.26914E+00	-8.19368E-01	1.93857E+00	-6.92775E+00
1.69629E+00	-1.87397E+00	1.93711E+00	-6.88243E+00
6.34235E-01	-2.51454E+00	1.93569E+00	-6.83769E+00
-6.24217E-01	-2.53400E+00	1.93430E+00	-6.79352E+00
-1.71966E+00	-1.92108E+00	1.93293E+00	-6.74991E+00
-2.34776E+00	-8.62479E-01	1.93159E+00	-6.70682E+00
-2.35905E+00	3.24157E-01	1.93029E+00	-6.66427E+00
-1.80182E+00	1.30046E+00	1.92904E+00	-6.62225E+00
-8.94906E-01	1.81999E+00	1.92780E+00	-6.58076E+00
5.70791E-02	1.80310E+00	1.92657E+00	-6.53979E+00
7.73057E-01	1.34919E+00	1.92534E+00	-6.49929E+00
1.08878E+00	6.85304E-01	1.92415E+00	-6.45925E+00
1.00157E+00	7.32339E-02	1.92298E+00	-6.41969E+00
6.53065E-01	-2.88469E-01	1.92186E+00	-6.38058E+00
2.60077E-01	-3.31379E-01	1.92078E+00	-6.34194E+00
2.25930E-02	-1.29750E-01	1.91971E+00	-6.30378E+00
4.47454E-02	1.42598E-01	1.91865E+00	-6.26606E+00
2.98276E-01	2.91834E-01	1.91758E+00	-6.22877E+00
6.40409E-01	1.87709E-01	1.91654E+00	-6.19189E+00
8.77110E-01	-1.81286E-01	1.91552E+00	-6.15541E+00
8.45608E-01	-7.01607E-01	1.91453E+00	-6.11934E+00
4.83714E-01	-1.17852E+00	1.91356E+00	-6.08365E+00
-1.40535E-01	-1.41197E+00	1.91265E+00	-6.04837E+00
-8.49818E-01	-1.27507E+00	1.91175E+00	-6.01353E+00
-1.42013E+00	-7.65279E-01	1.91082E+00	-5.97907E+00
-1.66139E+00	-9.31242E-03	1.90990E+00	-5.94495E+00
-1.48548E+00	7.79105E-01	1.90902E+00	-5.91119E+00
-9.37310E-01	1.37269E+00	1.90815E+00	-5.87780E+00
-1.78260E-01	1.60751E+00	1.90730E+00	-5.84475E+00
5.70535E-01	1.43584E+00	1.90648E+00	-5.81205E+00
1.10367E+00	9.36965E-01	1.90568E+00	-5.77971E+00
1.29777E+00	2.83662E-01	1.90490E+00	-5.74771E+00
1.14595E+00	-3.21527E-01	1.90413E+00	-5.71606E+00
7.49700E-01	-7.15852E-01	1.90336E+00	-5.68474E+00
2.73727E-01	-8.26984E-01	1.90259E+00	-5.65374E+00
-1.17519E-01	-6.87472E-01	1.90182E+00	-5.62304E+00
-3.17736E-01	-4.10660E-01	1.90107E+00	-5.59263E+00
-3.10133E-01	-1.39424E-01	1.90036E+00	-5.56252E+00
-1.62878E-01	1.13894E-02	1.89969E+00	-5.53272E+00
7.27200E-03	-3.11677E-03	1.89903E+00	-5.50325E+00
8.72068E-02	-1.46291E-01	1.89836E+00	-5.47409E+00
1.46952E-02	-3.21188E-01	1.89768E+00	-5.44522E+00
-1.97235E-01	-4.14644E-01	1.89701E+00	-5.41662E+00
-4.67090E-01	-3.46035E-01	1.89633E+00	-5.38828E+00
-6.78843E-01	-1.01649E-01	1.89568E+00	-5.36021E+00
-7.29042E-01	2.58057E-01	1.89503E+00	-5.33241E+00
-5.68493E-01	6.20379E-01	1.89440E+00	-5.30485E+00
-2.22880E-01	8.62042E-01	1.89380E+00	-5.27755E+00
2.14941E-01	8.94790E-01	1.89325E+00	-5.25053E+00
6.17330E-01	6.97548E-01	1.89271E+00	-5.22383E+00
8.66420E-01	3.23738E-01	1.89208E+00	-5.19741E+00
8.93935E-01	-1.17927E-01	1.89139E+00	-5.17114E+00
7.02541E-01	-5.01435E-01	1.89077E+00	-5.14502E+00
3.61548E-01	-7.25847E-01	1.89027E+00	-5.11913E+00
-1.99139E-02	-7.46537E-01	1.88984E+00	-5.09357E+00
-3.31653E-01	-5.85329E-01	1.88938E+00	-5.06835E+00
-4.98536E-01	-3.17037E-01	1.88881E+00	-5.04336E+00
-5.01508E-01	-3.89153E-02	1.88821E+00	-5.01852E+00
-3.77080E-01	1.64649E-01	1.88762E+00	-4.99383E+00
-1.97501E-01	2.49441E-01	1.88713E+00	-4.96931E+00
-4.02353E-02	2.21441E-01	1.88673E+00	-4.94507E+00
4.11286E-02	1.27521E-01	1.88631E+00	-4.92115E+00
3.39058E-02	3.19718E-02	1.88579E+00	-4.89745E+00
-3.38670E-02	-1.11148E-02	1.88525E+00	-4.87388E+00
-1.09378E-01	2.11220E-02	1.88475E+00	-4.85046E+00
-1.39348E-01	1.13356E-01	1.88431E+00	-4.82725E+00
-9.27699E-02	2.20794E-01	1.88390E+00	-4.80426E+00
2.65829E-02	2.89146E-01	1.88350E+00	-4.78150E+00
1.82111E-01	2.77439E-01	1.88309E+00	-4.75896E+00
3.19145E-01	1.74723E-01	1.88266E+00	-4.73662E+00
3.86316E-01	4.61827E-03	1.88220E+00	-4.71446E+00
3.55032E-01	-1.83443E-01	1.88173E+00	-4.69244E+00
2.29853E-01	-3.32385E-01	1.88129E+00	-4.67059E+00
4.64123E-02	-3.97726E-01	1.88088E+00	-4.64891E+00
-1.41727E-01	-3.62556E-01	1.88049E+00	-4.62742E+00
-2.81904E-01	-2.41964E-01	1.88011E+00	-4.60612E+00
-3.39624E-01	-7.61063E-02	1.87973E+00	-4.58501E+00
-3.08426E-01	8.48384E-02	1.87935E+00	-4.56407E+00
-2.09302E-01	1.97865E-01	1.87896E+00	-4.54329E+00
-8.08270E-02	2.40263E-01	1.87859E+00	-4.52268E+00
3.55883E-02	2.14357E-01	1.87822E+00	-4.50223E+00
1.09689E-01	1.43189E-01	1.87784E+00	-4.48195E+00
1.30699E-01	5.95879E-02	1.87747E+00	-4.46181E+00
1.07705E-01	-6.68570E-03	1.87712E+00	-4.44184E+00
6.29112E-02	-3.87968E-02	1.87678E+00	-4.42202E+00
2.11864E-02	-3.65709E-02	1.87644E+00	-4.40238E+00
1.95771E-04	-1.34811E-02	1.87609E+00	-4.38289E+00
4.77045E-03	1.10793E-02	1.87573E+00	-4.36354E+00
2.70635E-02	2.06733E-02	1.87539E+00	-4.34431E+00
5.16999E-02	8.29581E-03	1.87507E+00	-4.32524E+00
6.32821E-02	-2.17840E-02	1.87477E+00	-4.30633E+00
5.30084E-02	-5.69578E-02	1.87446E+00	-4.28758E+00
2.19028E-02	-8.22921E-02	1.87412E+00	-4.26898E+00
-2.02507E-02	-8.68808E-02	1.87378E+00	-4.25049E+00
-5.93898E-02	-6.79858E-02	1.87344E+00	-4.23211E+00
-8.29039E-02	-3.15712E-02	1.87315E+00	-4.21386E+00
-8.42722E-02	1.05854E-02	1.87288E+00	-4.19576E+00
-6.48911E-02	4.57145E-02	1.87263E+00	-4.17784E+00
-3.27243E-02	6.46822E-02	1.87233E+00	-4.16009E+00
1.30885E-03	6.47079E-02	1.87199E+00	-4.14244E+00
2.75209E-02	4.93546E-02	1.87164E+00	-4.12487E+00
4.05331E-02	2.61999E-02	1.87132E+00	-4.10738E+00
4.02101E-02	3.45796E-03	1.87107E+00	-4.09001E+00
3.04841E-02	-1.29562E-02	1.87087E+00	-4.07282E+00
1.69105E-02	-2.08349E-02	1.87063E+00	-4.05582E+00
4.21375E-03	-2.12965E-02	1.87034E+00	-4.03895E+00
-5.12792E-03	-1.71571E-02	1.87000E+00	-4.02216E+00
-1.08708E-02	-1.10797E-02	1.86967E+00	-4.00541E+00
-1.38971E-02	-4.43438E-03	1.86941E+00	-3.98876E+00
-1.48365E-02	2.67842E-03	1.86919E+00	-3.97226E+00
-1.32750E-02	1.04693E-02	1.86898E+00	-3.95591E+00
-8.00140E-03	1.82701E-02	1.86875E+00	-3.93970E+00
1.86697E-03	2.39443E-02	1.86849E+00	-3.92360E+00
1.55610E-02	2.43639E-02	1.86821E+00	-3.90758E+00
2.99729E-02	1.68458E-02	1.86796E+00	-3.89165E+00
4.01690E-02	8.78775E-04	1.86772E+00	-3.87584E+00
4.10782E-02	-2.07681E-02	1.86748E+00	-3.86014E+00
2.97226E-02	-4.22620E-02	1.86725E+00	-3.84454E+00
6.98520E-03	-5.64006E-02	1.86702E+00	-3.82904E+00
-2.19544E-02	-5.72103E-02	1.86681E+00	-3.81365E+00
-4.89300E-02	-4.24646E-02	1.86661E+00	-3.79838E+00
-6.54731E-02	-1.49971E-02	1.86639E+00	-3.78323E+00
-6.58947E-02	1.78444E-02	1.86616E+00	-3.76817E+00
-4.95400E-02	4.65378E-02	1.86591E+00	-3.75319E+00
-2.12566E-02	6.26983E-02	1.86568E+00	-3.73829E+00
1.02226E-02	6.21037E-02	1.86547E+00	-3.72349E+00
3.53778E-02	4.62054E-02	1.86527E+00	-3.70877E+00
4.73645E-02	2.15253E-02	1.86509E+00	-3.69416E+00
4.44426E-02	-2.89514E-03	1.86492E+00	-3.67968E+00
3.04195E-02	-1.89960E-02	1.86474E+00	-3.66530E+00
1.29139E-02	-2.27707E-02	1.86455E+00	-3.65101E+00
1.29089E-04	-1.56806E-02	1.86435E+00	-3.63683E+00
-2.58010E-03	-3.83653E-03	1.86412E+00	-3.62273E+00
5.06147E-03	4.73050E-03	1.86387E+00	-3.60870E+00
1.81165E-02	3.61439E-03	1.86363E+00	-3.59470E+00
2.85027E-02	-9.04378E-03	1.86345E+00	-3.58077E+00
2.84483E-02	-2.94665E-02	1.86332E+00	-3.56696E+00
1.39596E-02	-4.94730E-02	1.86320E+00	-3.55331E+00
-1.31056E-02	-5.96026E-02	1.86299E+00	-3.53979E+00
-4.52342E-02	-5.29349E-02	1.86271E+00	-3.52628E+00
-7.17379E-02	-2.81036E-02	1.86246E+00	-3.51276E+00
-8.25752E-02	9.67746E-03	1.86231E+00	-3.49931E+00
-7.21450E-02	5.00526E-02	1.86223E+00	-3.48600E+00
-4.15666E-02	8.09281E-02	1.86213E+00	-3.47286E+00
1.41030E-03	9.26099E-02	1.86195E+00	-3.45985E+00
4.48597E-02	8.11631E-02	1.86166E+00	-3.44686E+00
7.66072E-02	4.97782E-02	1.86138E+00	-3.43383E+00
8.82305E-02	7.64878E-03	1.86119E+00	-3.42082E+00
7.76637E-02	-3.31430E-02	1.86112E+00	-3.40792E+00
4.95953E-02	-6.16452E-02	1.86107E+00	-3.39521E+00
1.35504E-02	-7.14717E-02	1.86093E+00	-3.38265E+00
-1.95398E-02	-6.24971E-02	1.86071E+00	-3.37012E+00
-4.10000E-02	-4.03163E-02	1.86049E+00	-3.35760E+00
-4.70051E-02	-1.38044E-02	1.86029E+00	-3.34511E+00
-3.92765E-02	8.23909E-03	1.86015E+00	-3.33268E+00
-2.37703E-02	2.00654E-02	1.86005E+00	-3.32036E+00
-8.01589E-03	2.05863E-02	1.85995E+00	-3.30816E+00
1.83528E-03	1.31230E-02	1.85982E+00	-3.29606E+00
3.14144E-03	3.56445E-03	1.85964E+00	-3.28403E+00
-2.62830E-03	-2.24773E-03	1.85943E+00	-3.27202E+00
-1.09137E-02	-8.70998E-04	1.85925E+00	-3.26004E+00
-1.61890E-02	7.50653E-03	1.85909E+00	-3.24813E+00
-1.43110E-02	1.93330E-02	1.85895E+00	-3.23629E+00
-4.19436E-03	2.92366E-02	1.85881E+00	-3.22453E+00
1.17592E-02	3.21997E-02	1.85868E+00	-3.21283E+00
2.85585E-02	2.55128E-02	1.85855E+00	-3.20121E+00
4.04359E-02	9.82191E-03	1.85842E+00	-3.18967E+00
4.28789E-02	-1.10453E-02	1.85827E+00	-3.17819E+00
3.41671E-02	-3.13321E-02	1.85812E+00	-3.16677E+00
1.59284E-02	-4.51998E-02	1.85796E+00	-3.15539E+00
-7.37181E-03	-4.85004E-02	1.85782E+00	-3.14406E+00
