jMRUI Data Textfile
 
Filename: GABA.txt
 
PointsInDataset: 2048
DatasetsInFile: 1
SamplingInterval: 5.00000E-01
ZeroOrderPhase: 0E0
BeginTime: 0E0
TransmitterFrequency: 1.27740E+08
MagneticField: 0E0
TypeOfNucleus: 0E0
NameOfPatient: 
DateOfExperiment: 
Spectrometer: Vespa-Simulation
AdditionalInfo: see 'readme' file for Vespa-Simulation output synopsis
 
  
Signal and FFT 
sig(real)	sig(imag)	fft(real)	fft(imag)
Signal 1 out of 1 in file
4.68884E+00	-7.57123E-02	2.32743E+00	-4.91933E+00
2.67307E+00	-3.72289E+00	2.32726E+00	-4.89924E+00
-1.33651E+00	-4.12885E+00	2.32712E+00	-4.87930E+00
-3.78228E+00	-1.23205E+00	2.32700E+00	-4.85956E+00
-2.82588E+00	2.10293E+00	2.32684E+00	-4.83999E+00
1.29692E-01	3.00182E+00	2.32663E+00	-4.82054E+00
2.13605E+00	1.22408E+00	2.32639E+00	-4.80120E+00
1.66143E+00	-1.00489E+00	2.32616E+00	-4.78193E+00
-1.99850E-01	-1.49509E+00	2.32596E+00	-4.76275E+00
-1.23218E+00	-1.94695E-01	2.32584E+00	-4.74369E+00
-4.76144E-01	1.11884E+00	2.32577E+00	-4.72481E+00
9.95839E-01	9.18879E-01	2.32571E+00	-4.70613E+00
1.45215E+00	-5.39324E-01	2.32558E+00	-4.68762E+00
3.49162E-01	-1.68539E+00	2.32539E+00	-4.66922E+00
-1.24970E+00	-1.34593E+00	2.32516E+00	-4.65088E+00
-1.87758E+00	1.67382E-01	2.32494E+00	-4.63259E+00
-1.06213E+00	1.53876E+00	2.32480E+00	-4.61437E+00
4.32427E-01	1.75054E+00	2.32473E+00	-4.59631E+00
1.48366E+00	8.37980E-01	2.32469E+00	-4.57843E+00
1.53761E+00	-4.22178E-01	2.32461E+00	-4.56070E+00
7.82975E-01	-1.27643E+00	2.32450E+00	-4.54311E+00
-2.60020E-01	-1.40632E+00	2.32434E+00	-4.52562E+00
-1.10740E+00	-8.54826E-01	2.32416E+00	-4.50820E+00
-1.39118E+00	1.24396E-01	2.32400E+00	-4.49082E+00
-9.13199E-01	1.07034E+00	2.32391E+00	-4.47353E+00
1.44776E-01	1.40349E+00	2.32388E+00	-4.45638E+00
1.13035E+00	8.14710E-01	2.32385E+00	-4.43941E+00
1.30224E+00	-3.36578E-01	2.32378E+00	-4.42259E+00
4.97851E-01	-1.16126E+00	2.32368E+00	-4.40585E+00
-6.01202E-01	-9.83935E-01	2.32355E+00	-4.38921E+00
-1.02533E+00	-1.80190E-02	2.32340E+00	-4.37264E+00
-4.45093E-01	7.83360E-01	2.32326E+00	-4.35611E+00
4.78796E-01	6.51923E-01	2.32319E+00	-4.33965E+00
7.51755E-01	-2.09564E-01	2.32318E+00	-4.32332E+00
7.74166E-02	-8.24606E-01	2.32319E+00	-4.30717E+00
-8.11952E-01	-4.62626E-01	2.32314E+00	-4.29116E+00
-9.04210E-01	5.68498E-01	2.32306E+00	-4.27523E+00
2.16818E-02	1.20231E+00	2.32296E+00	-4.25939E+00
1.11847E+00	7.01047E-01	2.32283E+00	-4.24362E+00
1.29256E+00	-5.62685E-01	2.32269E+00	-4.22787E+00
2.97059E-01	-1.43535E+00	2.32263E+00	-4.21218E+00
-1.00540E+00	-1.09419E+00	2.32264E+00	-4.19661E+00
-1.46140E+00	1.67915E-01	2.32268E+00	-4.18121E+00
-7.03259E-01	1.23808E+00	2.32267E+00	-4.16597E+00
5.54387E-01	1.23003E+00	2.32258E+00	-4.15083E+00
1.22667E+00	2.54741E-01	2.32244E+00	-4.13575E+00
8.40727E-01	-7.72077E-01	2.32224E+00	-4.12069E+00
-1.29960E-01	-1.01371E+00	2.32206E+00	-4.10559E+00
-8.00868E-01	-4.13700E-01	2.32200E+00	-4.09051E+00
-6.88411E-01	3.79785E-01	2.32209E+00	-4.07556E+00
-4.64130E-02	6.80702E-01	2.32220E+00	-4.06085E+00
4.83262E-01	3.45925E-01	2.32222E+00	-4.04629E+00
4.81196E-01	-2.10836E-01	2.32221E+00	-4.03177E+00
5.47003E-02	-4.73013E-01	2.32220E+00	-4.01737E+00
-3.54898E-01	-2.68270E-01	2.32213E+00	-4.00308E+00
-3.97951E-01	1.56582E-01	2.32198E+00	-3.98883E+00
-8.25150E-02	4.11716E-01	2.32181E+00	-3.97456E+00
2.92263E-01	2.98365E-01	2.32172E+00	-3.96030E+00
4.13036E-01	-6.46287E-02	2.32169E+00	-3.94614E+00
1.94011E-01	-3.71760E-01	2.32163E+00	-3.93208E+00
-1.80363E-01	-3.79846E-01	2.32159E+00	-3.91803E+00
-4.11938E-01	-8.68247E-02	2.32168E+00	-3.90406E+00
-3.18317E-01	2.74875E-01	2.32182E+00	-3.89028E+00
2.74838E-02	4.18281E-01	2.32189E+00	-3.87669E+00
3.50019E-01	2.26516E-01	2.32188E+00	-3.86315E+00
3.86831E-01	-1.47612E-01	2.32185E+00	-3.84967E+00
1.05213E-01	-3.97180E-01	2.32178E+00	-3.83631E+00
-2.61405E-01	-3.12981E-01	2.32158E+00	-3.82294E+00
-4.03495E-01	3.45899E-02	2.32141E+00	-3.80949E+00
-2.00515E-01	3.48905E-01	2.32136E+00	-3.79605E+00
1.71257E-01	3.61243E-01	2.32141E+00	-3.78273E+00
3.91011E-01	6.53447E-02	2.32149E+00	-3.76954E+00
2.74662E-01	-2.79041E-01	2.32156E+00	-3.75647E+00
-6.75733E-02	-3.78199E-01	2.32163E+00	-3.74353E+00
-3.37237E-01	-1.60647E-01	2.32162E+00	-3.73070E+00
-3.14945E-01	1.72266E-01	2.32152E+00	-3.71787E+00
-4.35500E-02	3.37348E-01	2.32146E+00	-3.70503E+00
2.30143E-01	2.18073E-01	2.32143E+00	-3.69225E+00
2.85170E-01	-5.30172E-02	2.32143E+00	-3.67953E+00
1.10472E-01	-2.35241E-01	2.32145E+00	-3.66689E+00
-1.13213E-01	-1.97495E-01	2.32148E+00	-3.65434E+00
-1.94328E-01	-1.36161E-02	2.32150E+00	-3.64187E+00
-9.57152E-02	1.32378E-01	2.32150E+00	-3.62948E+00
5.80769E-02	1.22932E-01	2.32147E+00	-3.61714E+00
1.16027E-01	-6.07362E-04	2.32143E+00	-3.60483E+00
3.95393E-02	-9.92305E-02	2.32143E+00	-3.59255E+00
-7.79373E-02	-7.60321E-02	2.32145E+00	-3.58035E+00
-1.12219E-01	3.94232E-02	2.32146E+00	-3.56823E+00
-2.60461E-02	1.29900E-01	2.32148E+00	-3.55616E+00
1.02482E-01	1.04121E-01	2.32151E+00	-3.54416E+00
1.56179E-01	-2.20101E-02	2.32153E+00	-3.53225E+00
8.35833E-02	-1.43722E-01	2.32150E+00	-3.52039E+00
-5.97110E-02	-1.60423E-01	2.32147E+00	-3.50855E+00
-1.62024E-01	-5.86208E-02	2.32148E+00	-3.49674E+00
-1.48322E-01	8.25118E-02	2.32150E+00	-3.48501E+00
-3.55350E-02	1.59813E-01	2.32152E+00	-3.47334E+00
8.93677E-02	1.26242E-01	2.32155E+00	-3.46173E+00
1.41919E-01	1.84528E-02	2.32159E+00	-3.45020E+00
1.00291E-01	-8.21468E-02	2.32161E+00	-3.43875E+00
9.20354E-03	-1.14539E-01	2.32157E+00	-3.42734E+00
-6.49768E-02	-7.55062E-02	2.32153E+00	-3.41594E+00
-8.41431E-02	-7.29629E-03	2.32151E+00	-3.40455E+00
-5.51600E-02	4.32863E-02	2.32154E+00	-3.39321E+00
-1.03068E-02	5.62687E-02	2.32161E+00	-3.38196E+00
2.25725E-02	4.03434E-02	2.32166E+00	-3.37080E+00
3.44854E-02	1.47200E-02	2.32168E+00	-3.35970E+00
3.01836E-02	-7.03787E-03	2.32170E+00	-3.34863E+00
1.71987E-02	-1.99103E-02	2.32171E+00	-3.33763E+00
1.38708E-03	-2.26960E-02	2.32171E+00	-3.32667E+00
-1.15292E-02	-1.58088E-02	2.32168E+00	-3.31573E+00
-1.60001E-02	-3.26863E-03	2.32169E+00	-3.30480E+00
-1.06923E-02	7.20240E-03	2.32175E+00	-3.29394E+00
-1.01673E-03	9.34080E-03	2.32180E+00	-3.28318E+00
4.87532E-03	3.89656E-03	2.32181E+00	-3.27246E+00
3.44955E-03	-2.30402E-03	2.32184E+00	-3.26175E+00
-1.55238E-03	-3.43596E-03	2.32191E+00	-3.25112E+00
-4.14877E-03	-1.05614E-04	2.32193E+00	-3.24060E+00
-2.85193E-03	2.85549E-03	2.32186E+00	-3.23007E+00
-1.17688E-03	3.12640E-03	2.32186E+00	-3.21947E+00
-1.64305E-03	3.63962E-03	2.32198E+00	-3.20900E+00
-1.08702E-03	7.67841E-03	2.32200E+00	-3.19867E+00
6.07259E-03	1.22116E-02	2.32198E+00	-3.18827E+00
1.93419E-02	8.33171E-03	2.32207E+00	-3.17791E+00
2.81347E-02	-9.66349E-03	2.32215E+00	-3.16771E+00
1.85512E-02	-3.48752E-02	2.32211E+00	-3.15756E+00
-1.32613E-02	-4.83740E-02	2.32205E+00	-3.14730E+00
-5.26705E-02	-3.19075E-02	2.32216E+00	-3.13709E+00
-7.19493E-02	1.57196E-02	2.32224E+00	-3.12708E+00
-4.82881E-02	7.14257E-02	2.32218E+00	-3.11705E+00
1.66577E-02	9.76956E-02	2.32221E+00	-3.10695E+00
9.01691E-02	6.64940E-02	2.32233E+00	-3.09700E+00
1.23477E-01	-1.67576E-02	2.32235E+00	-3.08716E+00
8.37187E-02	-1.07549E-01	2.32229E+00	-3.07727E+00
-1.71014E-02	-1.45420E-01	2.32231E+00	-3.06736E+00
-1.20715E-01	-9.59996E-02	2.32239E+00	-3.05755E+00
-1.57912E-01	1.77800E-02	2.32241E+00	-3.04782E+00
-9.97376E-02	1.24663E-01	2.32240E+00	-3.03807E+00
1.64152E-02	1.54894E-01	2.32247E+00	-3.02833E+00
1.12822E-01	9.38577E-02	2.32256E+00	-3.01871E+00
1.32308E-01	-7.72211E-03	2.32258E+00	-3.00915E+00
8.14485E-02	-7.92532E-02	2.32259E+00	-2.99959E+00
1.52324E-02	-9.07701E-02	2.32263E+00	-2.99005E+00
-2.18082E-02	-6.97844E-02	2.32268E+00	-2.98059E+00
-3.70092E-02	-5.78961E-02	2.32267E+00	-2.97118E+00
-6.79508E-02	-5.50443E-02	2.32264E+00	-2.96174E+00
-1.20452E-01	-1.71453E-02	2.32267E+00	-2.95231E+00
-1.39480E-01	8.27017E-02	2.32273E+00	-2.94293E+00
-5.84724E-02	1.95195E-01	2.32278E+00	-2.93362E+00
1.14161E-01	2.14753E-01	2.32284E+00	-2.92433E+00
2.66860E-01	7.76889E-02	2.32294E+00	-2.91511E+00
2.64439E-01	-1.53615E-01	2.32302E+00	-2.90598E+00
7.40482E-02	-3.16568E-01	2.32303E+00	-2.89690E+00
-1.85073E-01	-2.78661E-01	2.32299E+00	-2.88779E+00
-3.28406E-01	-5.67049E-02	2.32299E+00	-2.87867E+00
-2.58404E-01	1.90759E-01	2.32303E+00	-2.86960E+00
-4.17727E-02	2.95899E-01	2.32305E+00	-2.86057E+00
1.58399E-01	2.15665E-01	2.32308E+00	-2.85156E+00
2.25362E-01	4.54594E-02	2.32314E+00	-2.84258E+00
1.68556E-01	-8.73363E-02	2.32322E+00	-2.83367E+00
7.63429E-02	-1.33980E-01	2.32327E+00	-2.82482E+00
9.93840E-03	-1.33230E-01	2.32330E+00	-2.81598E+00
-4.29089E-02	-1.30385E-01	2.32335E+00	-2.80716E+00
-1.16229E-01	-1.12084E-01	2.32341E+00	-2.79839E+00
-1.91706E-01	-3.17880E-02	2.32344E+00	-2.78967E+00
-1.97723E-01	1.11213E-01	2.32346E+00	-2.78097E+00
-8.60147E-02	2.39261E-01	2.32349E+00	-2.77227E+00
1.02179E-01	2.54699E-01	2.32355E+00	-2.76362E+00
2.56831E-01	1.28630E-01	2.32358E+00	-2.75502E+00
2.85189E-01	-7.23547E-02	2.32361E+00	-2.74643E+00
1.75337E-01	-2.41488E-01	2.32365E+00	-2.73786E+00
-1.44736E-02	-3.03593E-01	2.32371E+00	-2.72933E+00
-2.05805E-01	-2.38187E-01	2.32377E+00	-2.72086E+00
-3.27437E-01	-6.27031E-02	2.32380E+00	-2.71241E+00
-3.15633E-01	1.71924E-01	2.32383E+00	-2.70399E+00
-1.35935E-01	3.65464E-01	2.32387E+00	-2.69559E+00
1.59608E-01	3.88913E-01	2.32390E+00	-2.68723E+00
4.09082E-01	1.77343E-01	2.32393E+00	-2.67887E+00
4.27834E-01	-1.73680E-01	2.32398E+00	-2.67054E+00
1.68862E-01	-4.32325E-01	2.32406E+00	-2.66225E+00
-1.97821E-01	-4.04304E-01	2.32414E+00	-2.65403E+00
-4.01956E-01	-1.13987E-01	2.32419E+00	-2.64585E+00
-3.07882E-01	1.98875E-01	2.32420E+00	-2.63769E+00
-4.05052E-02	2.93960E-01	2.32421E+00	-2.62954E+00
1.41292E-01	1.55447E-01	2.32421E+00	-2.62140E+00
1.08967E-01	-8.88705E-03	2.32421E+00	-2.61326E+00
-1.07491E-02	-5.57951E-03	2.32426E+00	-2.60510E+00
5.16054E-03	1.21510E-01	2.32437E+00	-2.59700E+00
1.97584E-01	1.37669E-01	2.32451E+00	-2.58899E+00
3.42481E-01	-9.89047E-02	2.32461E+00	-2.58107E+00
1.83197E-01	-4.25537E-01	2.32465E+00	-2.57319E+00
