jMRUI Data Textfile
 
Filename: Glc.txt
 
PointsInDataset: 2048
DatasetsInFile: 1
SamplingInterval: 5.00000E-01
ZeroOrderPhase: 0E0
BeginTime: 0E0
TransmitterFrequency: 1.27740E+08
MagneticField: 0E0
TypeOfNucleus: 0E0
NameOfPatient: 
DateOfExperiment: 
Spectrometer: Vespa-Simulation
AdditionalInfo: see 'readme' file for Vespa-Simulation output synopsis
 
  
Signal and FFT 
sig(real)	sig(imag)	fft(real)	fft(imag)
Signal 1 out of 1 in file
6.68735E+00	-7.87732E-03	2.19514E+01	-3.96504E+01
5.99416E+00	-2.64952E+00	1.80466E+01	-3.78968E+01
4.18119E+00	-4.64397E+00	1.52220E+01	-3.60887E+01
1.70480E+00	-5.55187E+00	1.31312E+01	-3.43761E+01
-8.32963E-01	-5.21547E+00	1.15527E+01	-3.28074E+01
-2.84308E+00	-3.78781E+00	1.03390E+01	-3.13977E+01
-3.89860E+00	-1.67922E+00	9.37890E+00	-3.01410E+01
-3.83386E+00	5.61239E-01	8.59806E+00	-2.90109E+01
-2.76990E+00	2.39407E+00	7.95623E+00	-2.79838E+01
-1.06303E+00	3.42601E+00	7.42817E+00	-2.70465E+01
8.04913E-01	3.49893E+00	6.99324E+00	-2.61930E+01
2.36104E+00	2.71011E+00	6.62971E+00	-2.54193E+01
3.26284E+00	1.36347E+00	6.31646E+00	-2.47151E+01
3.37455E+00	-1.29890E-01	6.04190E+00	-2.40666E+01
2.78153E+00	-1.37070E+00	5.80123E+00	-2.34650E+01
1.74405E+00	-2.07623E+00	5.58971E+00	-2.29056E+01
6.08305E-01	-2.14338E+00	5.40162E+00	-2.23840E+01
-2.96788E-01	-1.65672E+00	5.23286E+00	-2.18947E+01
-7.47897E-01	-8.44705E-01	5.08113E+00	-2.14332E+01
-6.77576E-01	-8.31754E-04	4.94470E+00	-2.09960E+01
-1.76635E-01	6.05047E-01	4.82310E+00	-2.05794E+01
5.47230E-01	8.00024E-01	4.71757E+00	-2.01825E+01
1.23894E+00	5.47530E-01	4.62661E+00	-1.98065E+01
1.67186E+00	-5.44820E-02	4.54761E+00	-1.94498E+01
1.70870E+00	-8.11930E-01	4.48180E+00	-1.91118E+01
1.33270E+00	-1.49550E+00	4.42628E+00	-1.87970E+01
6.43785E-01	-1.90557E+00	4.37296E+00	-1.85037E+01
-1.75775E-01	-1.92365E+00	4.31917E+00	-1.82249E+01
-9.14074E-01	-1.53842E+00	4.26680E+00	-1.79569E+01
-1.38541E+00	-8.42395E-01	4.21626E+00	-1.76987E+01
-1.47505E+00	-3.01265E-03	4.16758E+00	-1.74466E+01
-1.16303E+00	7.81974E-01	4.12655E+00	-1.71988E+01
-5.23831E-01	1.33273E+00	4.09610E+00	-1.69620E+01
2.95699E-01	1.52757E+00	4.06993E+00	-1.67400E+01
1.11289E+00	1.32719E+00	4.04384E+00	-1.65295E+01
1.75072E+00	7.79143E-01	4.01756E+00	-1.63275E+01
2.07538E+00	3.64375E-03	3.99169E+00	-1.61324E+01
2.02236E+00	-8.34730E-01	3.96669E+00	-1.59436E+01
1.60710E+00	-1.56257E+00	3.94277E+00	-1.57606E+01
9.19146E-01	-2.03351E+00	3.92003E+00	-1.55832E+01
1.02006E-01	-2.15705E+00	3.89846E+00	-1.54110E+01
-6.77353E-01	-1.91585E+00	3.87804E+00	-1.52439E+01
-1.26278E+00	-1.36806E+00	3.85872E+00	-1.50815E+01
-1.54120E+00	-6.34494E-01	3.84045E+00	-1.49237E+01
-1.46581E+00	1.26891E-01	3.82316E+00	-1.47702E+01
-1.06598E+00	7.54697E-01	3.80681E+00	-1.46209E+01
-4.40902E-01	1.11881E+00	3.79130E+00	-1.44755E+01
2.62088E-01	1.14919E+00	3.77660E+00	-1.43339E+01
8.80345E-01	8.51745E-01	3.76265E+00	-1.41958E+01
1.27300E+00	3.07259E-01	3.74941E+00	-1.40612E+01
1.35389E+00	-3.47192E-01	3.73682E+00	-1.39299E+01
1.11208E+00	-9.50495E-01	3.72485E+00	-1.38018E+01
6.14574E-01	-1.35640E+00	3.71347E+00	-1.36766E+01
-9.98589E-03	-1.46921E+00	3.70263E+00	-1.35544E+01
-6.03456E-01	-1.26753E+00	3.69229E+00	-1.34349E+01
-1.01790E+00	-8.09457E-01	3.68242E+00	-1.33181E+01
-1.15332E+00	-2.17411E-01	3.67299E+00	-1.32038E+01
-9.83023E-01	3.53563E-01	3.66397E+00	-1.30920E+01
-5.60117E-01	7.56338E-01	3.65533E+00	-1.29826E+01
-2.99911E-03	8.90052E-01	3.64707E+00	-1.28754E+01
5.36312E-01	7.26260E-01	3.63915E+00	-1.27704E+01
9.12792E-01	3.15771E-01	3.63158E+00	-1.26675E+01
1.02678E+00	-2.25660E-01	3.62432E+00	-1.25666E+01
8.50068E-01	-7.48996E-01	3.61738E+00	-1.24677E+01
4.32475E-01	-1.11204E+00	3.61071E+00	-1.23706E+01
-1.12479E-01	-1.21740E+00	3.60429E+00	-1.22755E+01
-6.39019E-01	-1.03780E+00	3.59809E+00	-1.21820E+01
-1.00839E+00	-6.22211E-01	3.59212E+00	-1.20903E+01
-1.12587E+00	-8.14119E-02	3.58641E+00	-1.20001E+01
-9.65077E-01	4.42701E-01	3.58093E+00	-1.19116E+01
-5.73503E-01	8.15589E-01	3.57564E+00	-1.18247E+01
-5.82109E-02	9.45393E-01	3.57054E+00	-1.17392E+01
4.43946E-01	8.06258E-01	3.56561E+00	-1.16552E+01
8.03299E-01	4.43291E-01	3.56084E+00	-1.15726E+01
9.31094E-01	-4.13216E-02	3.55622E+00	-1.14914E+01
8.01581E-01	-5.16868E-01	3.55175E+00	-1.14114E+01
4.56685E-01	-8.59189E-01	3.54747E+00	-1.13327E+01
-7.33334E-03	-9.82854E-01	3.54336E+00	-1.12552E+01
-4.66728E-01	-8.61864E-01	3.53941E+00	-1.11790E+01
-8.03422E-01	-5.34230E-01	3.53559E+00	-1.11040E+01
-9.35269E-01	-8.96671E-02	3.53188E+00	-1.10302E+01
-8.35794E-01	3.55693E-01	3.52825E+00	-1.09575E+01
-5.38646E-01	6.90096E-01	3.52469E+00	-1.08858E+01
-1.26493E-01	8.34712E-01	3.52121E+00	-1.08152E+01
2.92340E-01	7.62380E-01	3.51786E+00	-1.07455E+01
6.12531E-01	5.02222E-01	3.51465E+00	-1.06768E+01
7.58549E-01	1.29767E-01	3.51159E+00	-1.06091E+01
7.02538E-01	-2.54337E-01	3.50864E+00	-1.05423E+01
4.69251E-01	-5.51124E-01	3.50581E+00	-1.04766E+01
1.27429E-01	-6.88261E-01	3.50305E+00	-1.04117E+01
-2.29594E-01	-6.37329E-01	3.50034E+00	-1.03478E+01
-5.08652E-01	-4.19127E-01	3.49764E+00	-1.02848E+01
-6.40454E-01	-9.62600E-02	3.49498E+00	-1.02225E+01
-5.96116E-01	2.44428E-01	3.49240E+00	-1.01610E+01
-3.92971E-01	5.14903E-01	3.48991E+00	-1.01003E+01
-8.83365E-02	6.48405E-01	3.48751E+00	-1.00404E+01
2.36443E-01	6.15565E-01	3.48518E+00	-9.98119E+00
4.97536E-01	4.30648E-01	3.48292E+00	-9.92277E+00
6.30001E-01	1.46521E-01	3.48073E+00	-9.86509E+00
6.03739E-01	-1.60007E-01	3.47857E+00	-9.80812E+00
4.30108E-01	-4.08259E-01	3.47645E+00	-9.75183E+00
1.58004E-01	-5.34297E-01	3.47440E+00	-9.69618E+00
-1.39414E-01	-5.06677E-01	3.47246E+00	-9.64118E+00
-3.83785E-01	-3.33637E-01	3.47063E+00	-9.58688E+00
-5.11271E-01	-6.01790E-02	3.46884E+00	-9.53329E+00
-4.88309E-01	2.43936E-01	3.46706E+00	-9.48037E+00
-3.19338E-01	5.02133E-01	3.46527E+00	-9.42809E+00
-4.49391E-02	6.50070E-01	3.46344E+00	-9.37640E+00
2.68928E-01	6.51317E-01	3.46160E+00	-9.32523E+00
5.47660E-01	5.05670E-01	3.45981E+00	-9.27454E+00
7.26479E-01	2.48294E-01	3.45813E+00	-9.22437E+00
7.65798E-01	-5.96796E-02	3.45654E+00	-9.17479E+00
6.60120E-01	-3.46700E-01	3.45496E+00	-9.12576E+00
4.38257E-01	-5.48310E-01	3.45343E+00	-9.07720E+00
1.55152E-01	-6.22382E-01	3.45203E+00	-9.02916E+00
-1.22213E-01	-5.58210E-01	3.45074E+00	-8.98171E+00
-3.31340E-01	-3.77755E-01	3.44946E+00	-8.93487E+00
-4.28937E-01	-1.28793E-01	3.44814E+00	-8.88857E+00
-4.00172E-01	1.27802E-01	3.44677E+00	-8.84277E+00
-2.60668E-01	3.33394E-01	3.44537E+00	-8.79741E+00
-5.08970E-02	4.45561E-01	3.44396E+00	-8.75248E+00
1.75281E-01	4.47361E-01	3.44256E+00	-8.70792E+00
3.64652E-01	3.49744E-01	3.44121E+00	-8.66375E+00
4.77858E-01	1.86925E-01	3.43997E+00	-8.61999E+00
4.98349E-01	6.12923E-03	3.43881E+00	-8.57668E+00
4.35056E-01	-1.45507E-01	3.43770E+00	-8.53384E+00
3.18344E-01	-2.33234E-01	3.43662E+00	-8.49147E+00
1.90545E-01	-2.43323E-01	3.43553E+00	-8.44954E+00
9.36659E-02	-1.85723E-01	3.43443E+00	-8.40802E+00
5.75562E-02	-9.02665E-02	3.43334E+00	-8.36687E+00
9.16148E-02	2.45764E-03	3.43227E+00	-8.32611E+00
1.82277E-01	5.31296E-02	3.43122E+00	-8.28570E+00
2.96815E-01	3.53795E-02	3.43022E+00	-8.24567E+00
3.92597E-01	-5.59752E-02	3.42927E+00	-8.20605E+00
4.29357E-01	-2.02422E-01	3.42831E+00	-8.16684E+00
3.81265E-01	-3.65790E-01	3.42732E+00	-8.12799E+00
2.45534E-01	-4.97961E-01	3.42630E+00	-8.08947E+00
4.51483E-02	-5.53873E-01	3.42529E+00	-8.05125E+00
-1.75460E-01	-5.04499E-01	3.42433E+00	-8.01333E+00
-3.60568E-01	-3.46253E-01	3.42340E+00	-7.97574E+00
-4.57317E-01	-1.04286E-01	3.42251E+00	-7.93846E+00
-4.29925E-01	1.71698E-01	3.42167E+00	-7.90151E+00
-2.70394E-01	4.18328E-01	3.42091E+00	-7.86490E+00
-2.66513E-03	5.73710E-01	3.42017E+00	-7.82867E+00
3.21151E-01	5.93102E-01	3.41940E+00	-7.79280E+00
6.32110E-01	4.61028E-01	3.41861E+00	-7.75723E+00
8.60255E-01	1.96639E-01	3.41783E+00	-7.72195E+00
9.51683E-01	-1.49437E-01	3.41705E+00	-7.68697E+00
8.82036E-01	-5.06224E-01	3.41626E+00	-7.65228E+00
6.63037E-01	-7.98907E-01	3.41548E+00	-7.61785E+00
3.40176E-01	-9.66601E-01	3.41475E+00	-7.58369E+00
-1.79394E-02	-9.76861E-01	3.41402E+00	-7.54987E+00
-3.36256E-01	-8.33178E-01	3.41324E+00	-7.51630E+00
-5.50934E-01	-5.73435E-01	3.41248E+00	-7.48294E+00
-6.24430E-01	-2.59911E-01	3.41177E+00	-7.44982E+00
-5.53369E-01	3.66595E-02	3.41112E+00	-7.41697E+00
-3.67593E-01	2.54590E-01	3.41049E+00	-7.38441E+00
-1.20793E-01	3.55719E-01	3.40989E+00	-7.35210E+00
1.24509E-01	3.33096E-01	3.40935E+00	-7.32006E+00
3.13386E-01	2.10114E-01	3.40885E+00	-7.28835E+00
4.11899E-01	3.16008E-02	3.40830E+00	-7.25697E+00
4.13742E-01	-1.50072E-01	3.40769E+00	-7.22585E+00
3.38936E-01	-2.89978E-01	3.40700E+00	-7.19495E+00
2.25180E-01	-3.62269E-01	3.40626E+00	-7.16421E+00
1.14863E-01	-3.65374E-01	3.40556E+00	-7.13360E+00
4.17912E-02	-3.19621E-01	3.40496E+00	-7.10319E+00
2.15639E-02	-2.58465E-01	3.40442E+00	-7.07306E+00
4.82349E-02	-2.16316E-01	3.40388E+00	-7.04319E+00
9.80857E-02	-2.16882E-01	3.40330E+00	-7.01354E+00
1.38749E-01	-2.65584E-01	3.40275E+00	-6.98404E+00
1.40786E-01	-3.48221E-01	3.40228E+00	-6.95477E+00
8.79172E-02	-4.36043E-01	3.40186E+00	-6.92576E+00
-1.72347E-02	-4.95409E-01	3.40143E+00	-6.89703E+00
-1.53511E-01	-4.98879E-01	3.40098E+00	-6.86855E+00
-2.87545E-01	-4.34218E-01	3.40048E+00	-6.84029E+00
-3.83569E-01	-3.08668E-01	3.39993E+00	-6.81221E+00
-4.14102E-01	-1.47269E-01	3.39936E+00	-6.78429E+00
-3.67913E-01	1.40426E-02	3.39881E+00	-6.75650E+00
-2.53166E-01	1.38324E-01	3.39831E+00	-6.72889E+00
-9.50127E-02	1.97498E-01	3.39784E+00	-6.70148E+00
7.13801E-02	1.79368E-01	3.39739E+00	-6.67428E+00
2.10102E-01	8.99980E-02	3.39696E+00	-6.64727E+00
2.93357E-01	-4.89408E-02	3.39654E+00	-6.62044E+00
3.07391E-01	-2.06531E-01	3.39614E+00	-6.59381E+00
2.54342E-01	-3.50734E-01	3.39576E+00	-6.56737E+00
1.49864E-01	-4.55779E-01	3.39539E+00	-6.54115E+00
1.78029E-02	-5.06984E-01	3.39500E+00	-6.51513E+00
-1.16231E-01	-5.02134E-01	3.39458E+00	-6.48929E+00
-2.30468E-01	-4.49678E-01	3.39416E+00	-6.46361E+00
-3.10609E-01	-3.64820E-01	3.39373E+00	-6.43808E+00
