jMRUI Data Textfile
 
Filename: Gln.txt
 
PointsInDataset: 2048
DatasetsInFile: 1
SamplingInterval: 5.00000E-01
ZeroOrderPhase: 0E0
BeginTime: 0E0
TransmitterFrequency: 1.27740E+08
MagneticField: 0E0
TypeOfNucleus: 0E0
NameOfPatient: 
DateOfExperiment: 
Spectrometer: Vespa-Simulation
AdditionalInfo: see 'readme' file for Vespa-Simulation output synopsis
 
  
Signal and FFT 
sig(real)	sig(imag)	fft(real)	fft(imag)
Signal 1 out of 1 in file
6.64855E+00	-1.45232E-02	3.41158E+00	-3.99535E+00
3.99161E+00	-1.77827E+00	3.41041E+00	-3.95616E+00
-1.48181E+00	-2.32543E+00	3.40920E+00	-3.91718E+00
-4.96089E+00	-1.32663E+00	3.40805E+00	-3.87841E+00
-3.73018E+00	3.64242E-01	3.40703E+00	-3.83989E+00
5.32137E-01	1.28054E+00	3.40613E+00	-3.80171E+00
3.65486E+00	5.36229E-01	3.40531E+00	-3.76389E+00
2.96943E+00	-1.27440E+00	3.40451E+00	-3.72645E+00
-5.00751E-01	-2.40668E+00	3.40367E+00	-3.68932E+00
-3.45902E+00	-1.48579E+00	3.40281E+00	-3.65247E+00
-3.57117E+00	1.06863E+00	3.40194E+00	-3.61586E+00
-1.28521E+00	3.18406E+00	3.40108E+00	-3.57947E+00
1.15938E+00	2.95307E+00	3.40026E+00	-3.54331E+00
2.05625E+00	5.04346E-01	3.39950E+00	-3.50737E+00
1.46802E+00	-1.96954E+00	3.39879E+00	-3.47170E+00
5.29251E-01	-2.22515E+00	3.39812E+00	-3.43629E+00
3.89059E-02	-1.36131E-01	3.39746E+00	-3.40116E+00
-6.55067E-02	2.15486E+00	3.39677E+00	-3.36627E+00
-1.22035E-01	2.31839E+00	3.39607E+00	-3.33158E+00
-1.00321E-01	1.09189E-01	3.39536E+00	-3.29706E+00
2.47242E-01	-2.43714E+00	3.39469E+00	-3.26272E+00
7.81418E-01	-3.04167E+00	3.39408E+00	-3.22855E+00
8.72170E-01	-1.35861E+00	3.39353E+00	-3.19459E+00
6.97775E-02	8.69641E-01	3.39303E+00	-3.16086E+00
-1.22757E+00	1.69154E+00	3.39255E+00	-3.12738E+00
-1.98509E+00	8.15276E-01	3.39203E+00	-3.09412E+00
-1.50424E+00	-4.01517E-01	3.39147E+00	-3.06103E+00
-1.37003E-01	-6.08327E-01	3.39090E+00	-3.02808E+00
1.03043E+00	1.58672E-01	3.39035E+00	-2.99523E+00
1.19013E+00	7.98505E-01	3.38987E+00	-2.96253E+00
4.78896E-01	5.96002E-01	3.38945E+00	-2.93002E+00
-3.03561E-01	2.51055E-02	3.38904E+00	-2.89771E+00
-5.07855E-01	1.38693E-02	3.38862E+00	-2.86558E+00
-1.15253E-01	6.46460E-01	3.38819E+00	-2.83360E+00
4.62898E-01	9.39885E-01	3.38773E+00	-2.80176E+00
8.51358E-01	3.83557E-02	3.38726E+00	-2.77001E+00
9.00275E-01	-1.56537E+00	3.38683E+00	-2.73835E+00
5.70307E-01	-2.30970E+00	3.38647E+00	-2.70680E+00
-1.16594E-01	-1.19889E+00	3.38617E+00	-2.67540E+00
-9.17942E-01	9.64291E-01	3.38592E+00	-2.64420E+00
-1.32399E+00	2.19662E+00	3.38563E+00	-2.61319E+00
-9.25403E-01	1.28836E+00	3.38526E+00	-2.58229E+00
7.44689E-02	-9.14082E-01	3.38488E+00	-2.55143E+00
8.51537E-01	-2.27234E+00	3.38453E+00	-2.52065E+00
6.74837E-01	-1.43265E+00	3.38422E+00	-2.48994E+00
-3.01901E-01	8.72021E-01	3.38399E+00	-2.45933E+00
-1.07493E+00	2.56663E+00	3.38380E+00	-2.42889E+00
-7.60729E-01	2.21629E+00	3.38360E+00	-2.39860E+00
4.51034E-01	2.70258E-01	3.38335E+00	-2.36841E+00
1.41656E+00	-1.53645E+00	3.38308E+00	-2.33829E+00
1.19105E+00	-1.85517E+00	3.38281E+00	-2.30823E+00
2.70120E-02	-7.86860E-01	3.38256E+00	-2.27823E+00
-8.74743E-01	5.13272E-01	3.38233E+00	-2.24829E+00
-6.35326E-01	1.02986E+00	3.38214E+00	-2.21841E+00
3.65339E-01	6.30437E-01	3.38199E+00	-2.18863E+00
9.12223E-01	-1.52869E-01	3.38186E+00	-2.15894E+00
2.95575E-01	-7.68305E-01	3.38174E+00	-2.12935E+00
-8.90616E-01	-9.70734E-01	3.38159E+00	-2.09985E+00
-1.37573E+00	-7.14084E-01	3.38143E+00	-2.07041E+00
-5.94285E-01	-3.65190E-02	3.38124E+00	-2.04100E+00
6.81175E-01	8.17911E-01	3.38107E+00	-2.01160E+00
1.15041E+00	1.32588E+00	3.38095E+00	-1.98224E+00
3.65988E-01	1.00993E+00	3.38086E+00	-1.95294E+00
-8.01118E-01	-3.10219E-02	3.38081E+00	-1.92373E+00
-1.09597E+00	-1.01603E+00	3.38074E+00	-1.89459E+00
-1.94206E-01	-1.10077E+00	3.38064E+00	-1.86551E+00
9.96448E-01	-1.99150E-01	3.38052E+00	-1.83644E+00
1.31773E+00	8.60721E-01	3.38041E+00	-1.80738E+00
5.34685E-01	1.09404E+00	3.38031E+00	-1.77834E+00
-5.19979E-01	3.04358E-01	3.38023E+00	-1.74931E+00
-8.86648E-01	-7.49406E-01	3.38018E+00	-1.72030E+00
-4.25913E-01	-1.12917E+00	3.38016E+00	-1.69133E+00
1.99955E-01	-6.16911E-01	3.38014E+00	-1.66240E+00
3.53505E-01	1.78769E-01	3.38011E+00	-1.63349E+00
6.16527E-02	5.41167E-01	3.38009E+00	-1.60457E+00
-1.88055E-01	3.54924E-01	3.38010E+00	-1.57567E+00
-1.24525E-01	6.64292E-02	3.38012E+00	-1.54679E+00
1.86837E-02	5.00486E-02	3.38015E+00	-1.51792E+00
-9.17525E-02	1.80773E-01	3.38020E+00	-1.48906E+00
-3.64435E-01	9.42260E-02	3.38026E+00	-1.46022E+00
-3.44875E-01	-2.47265E-01	3.38031E+00	-1.43141E+00
1.81882E-01	-4.30126E-01	3.38032E+00	-1.40259E+00
8.00276E-01	-9.74342E-02	3.38032E+00	-1.37375E+00
8.30610E-01	5.23766E-01	3.38031E+00	-1.34486E+00
9.98085E-02	7.63547E-01	3.38032E+00	-1.31592E+00
-7.67787E-01	2.35817E-01	3.38036E+00	-1.28693E+00
-9.34084E-01	-6.57903E-01	3.38045E+00	-1.25792E+00
-2.18577E-01	-1.06596E+00	3.38059E+00	-1.22889E+00
6.86298E-01	-5.56746E-01	3.38079E+00	-1.19988E+00
9.08341E-01	4.09199E-01	3.38098E+00	-1.17093E+00
2.68413E-01	9.32013E-01	3.38110E+00	-1.14196E+00
-5.79622E-01	5.78218E-01	3.38120E+00	-1.11291E+00
-8.51713E-01	-2.18579E-01	3.38135E+00	-1.08380E+00
-4.00850E-01	-6.59136E-01	3.38151E+00	-1.05471E+00
2.38860E-01	-4.05481E-01	3.38161E+00	-1.02560E+00
4.88836E-01	1.52893E-01	3.38166E+00	-9.96384E-01
2.91255E-01	4.14694E-01	3.38172E+00	-9.67051E-01
2.31672E-02	2.26095E-01	3.38183E+00	-9.37612E-01
-3.21635E-02	-4.91203E-02	3.38202E+00	-9.08098E-01
1.75884E-02	-5.29846E-02	3.38228E+00	-8.78563E-01
-7.50121E-02	1.23237E-01	3.38257E+00	-8.49028E-01
-2.80872E-01	1.03950E-01	3.38282E+00	-8.19472E-01
-2.83617E-01	-2.30464E-01	3.38306E+00	-7.89840E-01
8.88012E-02	-5.20785E-01	3.38331E+00	-7.60150E-01
5.40930E-01	-3.31771E-01	3.38352E+00	-7.30378E-01
5.55737E-01	2.80233E-01	3.38374E+00	-7.00490E-01
-1.22106E-02	7.31566E-01	3.38398E+00	-6.70509E-01
-6.82622E-01	5.10410E-01	3.38425E+00	-6.40430E-01
-7.87526E-01	-2.34795E-01	3.38458E+00	-6.10294E-01
-1.72712E-01	-7.93803E-01	3.38487E+00	-5.80135E-01
6.02172E-01	-6.11146E-01	3.38510E+00	-5.49828E-01
8.11218E-01	1.38203E-01	3.38538E+00	-5.19373E-01
2.90736E-01	7.31218E-01	3.38567E+00	-4.88858E-01
-4.19231E-01	6.35280E-01	3.38592E+00	-4.58171E-01
-6.52121E-01	1.46466E-02	3.38628E+00	-4.27326E-01
-2.77027E-01	-5.02185E-01	3.38669E+00	-3.96462E-01
2.44140E-01	-4.91628E-01	3.38704E+00	-3.65510E-01
4.05662E-01	-1.05760E-01	3.38739E+00	-3.34387E-01
1.70762E-01	1.99399E-01	3.38776E+00	-3.03148E-01
-9.18136E-02	1.95563E-01	3.38812E+00	-2.71775E-01
-9.97343E-02	5.72905E-02	3.38850E+00	-2.40238E-01
3.37112E-02	4.28413E-02	3.38892E+00	-2.08550E-01
1.44974E-02	1.32310E-01	3.38936E+00	-1.76743E-01
-2.00689E-01	8.25243E-02	3.38980E+00	-1.44802E-01
-3.14695E-01	-1.91335E-01	3.39024E+00	-1.12715E-01
-6.75132E-02	-4.20053E-01	3.39068E+00	-8.04700E-02
3.80612E-01	-2.62209E-01	3.39111E+00	-4.80452E-02
5.56363E-01	2.45957E-01	3.39155E+00	-1.54137E-02
1.94523E-01	6.32489E-01	3.39203E+00	1.74065E-02
-4.14098E-01	4.57844E-01	3.39255E+00	5.03997E-02
-6.75513E-01	-1.81411E-01	3.39309E+00	8.35650E-02
-3.06216E-01	-6.93807E-01	3.39366E+00	1.16908E-01
3.53766E-01	-5.78778E-01	3.39424E+00	1.50407E-01
6.77134E-01	5.44675E-02	3.39479E+00	1.84085E-01
3.81108E-01	5.94533E-01	3.39530E+00	2.18003E-01
-2.12373E-01	5.50607E-01	3.39584E+00	2.52205E-01
-5.39809E-01	2.88522E-02	3.39647E+00	2.86631E-01
-3.65302E-01	-4.25200E-01	3.39712E+00	3.21238E-01
4.60735E-02	-4.13002E-01	3.39775E+00	3.56089E-01
2.80019E-01	-5.37106E-02	3.39848E+00	3.91201E-01
2.09281E-01	2.25215E-01	3.39925E+00	4.26423E-01
4.00098E-02	1.86988E-01	3.39988E+00	4.61870E-01
-1.30725E-02	-1.71507E-03	3.40050E+00	4.97698E-01
1.45114E-02	-4.45722E-02	3.40120E+00	5.33793E-01
-5.03486E-02	9.51417E-02	3.40189E+00	5.70177E-01
-2.16871E-01	1.66204E-01	3.40265E+00	6.06882E-01
-2.60579E-01	-2.02168E-02	3.40347E+00	6.43847E-01
-6.03465E-03	-3.07118E-01	3.40433E+00	6.81091E-01
3.83092E-01	-3.41262E-01	3.40524E+00	7.18570E-01
5.03745E-01	1.43432E-03	3.40607E+00	7.56299E-01
1.49117E-01	4.18381E-01	3.40686E+00	7.94428E-01
-4.04206E-01	4.70223E-01	3.40772E+00	8.32947E-01
-6.24265E-01	5.82153E-02	3.40863E+00	8.71784E-01
-2.67500E-01	-4.42047E-01	3.40955E+00	9.10984E-01
3.41775E-01	-5.52599E-01	3.41057E+00	9.50544E-01
6.19225E-01	-1.77389E-01	3.41161E+00	9.90372E-01
3.08560E-01	3.14778E-01	3.41259E+00	1.03058E+00
-2.67538E-01	4.80270E-01	3.41358E+00	1.07125E+00
-5.52347E-01	2.32251E-01	3.41464E+00	1.11234E+00
-3.19260E-01	-1.30224E-01	3.41579E+00	1.15384E+00
1.38684E-01	-2.76723E-01	3.41698E+00	1.19569E+00
3.62052E-01	-1.64189E-01	3.41817E+00	1.23792E+00
2.06039E-01	5.08851E-03	3.41933E+00	1.28058E+00
-6.73723E-02	7.07575E-02	3.42046E+00	1.32375E+00
-1.39020E-01	7.47886E-02	3.42164E+00	1.36746E+00
8.25292E-03	1.26657E-01	3.42290E+00	1.41169E+00
1.22101E-01	1.91280E-01	3.42425E+00	1.45641E+00
2.70831E-02	1.06329E-01	3.42569E+00	1.50161E+00
-1.50776E-01	-1.74529E-01	3.42717E+00	1.54727E+00
-1.49075E-01	-4.32914E-01	3.42865E+00	1.59343E+00
8.49344E-02	-3.69385E-01	3.43012E+00	1.64015E+00
2.95414E-01	4.66016E-02	3.43163E+00	1.68746E+00
2.01346E-01	4.69356E-01	3.43316E+00	1.73537E+00
-1.60094E-01	4.86771E-01	3.43474E+00	1.78391E+00
-4.37478E-01	5.03605E-02	3.43638E+00	1.83310E+00
-3.33136E-01	-4.41041E-01	3.43810E+00	1.88293E+00
6.81028E-02	-5.20962E-01	3.43989E+00	1.93340E+00
3.78005E-01	-1.16351E-01	3.44172E+00	1.98453E+00
3.10110E-01	3.88111E-01	3.44358E+00	2.03636E+00
-2.97665E-02	5.41705E-01	3.44549E+00	2.08892E+00
-2.75459E-01	2.58082E-01	3.44746E+00	2.14225E+00
-1.95322E-01	-1.51039E-01	3.44949E+00	2.19636E+00
8.49607E-02	-3.31744E-01	3.45162E+00	2.25127E+00
2.54844E-01	-2.24126E-01	3.45384E+00	2.30698E+00
1.67090E-01	-3.91475E-02	3.45611E+00	2.36349E+00
-3.11393E-02	3.45883E-02	3.45842E+00	2.42087E+00
-1.05086E-01	2.23925E-02	3.46078E+00	2.47917E+00
-1.19215E-02	5.11810E-02	3.46320E+00	2.53843E+00
7.22950E-02	1.21297E-01	3.46572E+00	2.59868E+00
-9.90363E-03	8.35203E-02	3.46833E+00	2.65994E+00
-1.92024E-01	-1.35282E-01	3.47105E+00	2.72225E+00
-2.56036E-01	-3.54992E-01	3.47390E+00	2.78560E+00
