jMRUI Data Textfile
 
Filename: Glu.txt
 
PointsInDataset: 2048
DatasetsInFile: 1
SamplingInterval: 5.00000E-01
ZeroOrderPhase: 0E0
BeginTime: 0E0
TransmitterFrequency: 1.27740E+08
MagneticField: 0E0
TypeOfNucleus: 0E0
NameOfPatient: 
DateOfExperiment: 
Spectrometer: Vespa-Simulation
AdditionalInfo: see 'readme' file for Vespa-Simulation output synopsis
 
  
Signal and FFT 
sig(real)	sig(imag)	fft(real)	fft(imag)
Signal 1 out of 1 in file
4.71110E+00	-1.48278E-02	2.42711E+00	-5.80786E+00
2.86417E+00	-3.53077E+00	2.42596E+00	-5.77649E+00
-9.35936E-01	-4.03394E+00	2.42483E+00	-5.74548E+00
-3.33309E+00	-1.33606E+00	2.42372E+00	-5.71482E+00
-2.40106E+00	1.89241E+00	2.42263E+00	-5.68450E+00
6.62103E-01	2.67089E+00	2.42156E+00	-5.65451E+00
2.77392E+00	4.48552E-01	2.42053E+00	-5.62484E+00
1.88781E+00	-2.50346E+00	2.41953E+00	-5.59550E+00
-1.17008E+00	-3.30998E+00	2.41855E+00	-5.56649E+00
-3.58611E+00	-1.15640E+00	2.41759E+00	-5.53780E+00
-3.21227E+00	2.06704E+00	2.41665E+00	-5.50940E+00
-4.60962E-01	3.61231E+00	2.41575E+00	-5.48131E+00
2.23208E+00	2.37125E+00	2.41486E+00	-5.45353E+00
2.71503E+00	-2.83532E-01	2.41398E+00	-5.42604E+00
9.75716E-01	-1.93915E+00	2.41311E+00	-5.39883E+00
-1.08058E+00	-1.36805E+00	2.41224E+00	-5.37189E+00
-1.53072E+00	5.30983E-01	2.41140E+00	-5.34520E+00
-1.36796E-01	1.78302E+00	2.41059E+00	-5.31877E+00
1.64484E+00	1.21838E+00	2.40982E+00	-5.29262E+00
2.15504E+00	-5.89065E-01	2.40907E+00	-5.26675E+00
1.00945E+00	-2.03957E+00	2.40832E+00	-5.24114E+00
-7.41137E-01	-2.02226E+00	2.40757E+00	-5.21579E+00
-1.71575E+00	-7.78939E-01	2.40681E+00	-5.19067E+00
-1.40632E+00	5.34300E-01	2.40605E+00	-5.16576E+00
-4.15761E-01	9.79454E-01	2.40535E+00	-5.14106E+00
2.90617E-01	5.49806E-01	2.40469E+00	-5.11660E+00
2.66774E-01	-6.48476E-02	2.40405E+00	-5.09241E+00
-1.92371E-01	-2.40685E-01	2.40341E+00	-5.06844E+00
-5.16082E-01	8.33578E-02	2.40277E+00	-5.04472E+00
-4.15677E-01	5.34506E-01	2.40213E+00	-5.02120E+00
-1.66850E-02	7.57494E-01	2.40149E+00	-4.99788E+00
4.07837E-01	6.76057E-01	2.40086E+00	-4.97475E+00
7.03379E-01	3.97402E-01	2.40027E+00	-4.95181E+00
8.37211E-01	1.15110E-02	2.39972E+00	-4.92909E+00
7.61732E-01	-4.32035E-01	2.39919E+00	-4.90660E+00
4.08504E-01	-8.00235E-01	2.39864E+00	-4.88433E+00
-1.48239E-01	-8.63481E-01	2.39809E+00	-4.86224E+00
-6.05724E-01	-5.05349E-01	2.39754E+00	-4.84032E+00
-6.31159E-01	6.20325E-02	2.39701E+00	-4.81859E+00
-2.06864E-01	3.86710E-01	2.39648E+00	-4.79704E+00
2.59959E-01	1.76955E-01	2.39599E+00	-4.77566E+00
2.63525E-01	-3.62506E-01	2.39552E+00	-4.75448E+00
-2.96609E-01	-6.48793E-01	2.39506E+00	-4.73350E+00
-9.41414E-01	-2.56310E-01	2.39458E+00	-4.71270E+00
-1.00534E+00	6.23050E-01	2.39410E+00	-4.69205E+00
-2.72931E-01	1.27791E+00	2.39364E+00	-4.67158E+00
7.52946E-01	1.10149E+00	2.39317E+00	-4.65127E+00
1.25358E+00	1.76992E-01	2.39271E+00	-4.63111E+00
8.30344E-01	-7.49417E-01	2.39226E+00	-4.61111E+00
-1.11755E-01	-9.21568E-01	2.39184E+00	-4.59127E+00
-7.15120E-01	-2.62258E-01	2.39142E+00	-4.57159E+00
-4.50139E-01	5.50737E-01	2.39100E+00	-4.55208E+00
3.96243E-01	7.07597E-01	2.39059E+00	-4.53271E+00
9.84586E-01	1.72510E-02	2.39018E+00	-4.51349E+00
6.99860E-01	-9.11186E-01	2.38978E+00	-4.49442E+00
-2.77676E-01	-1.22523E+00	2.38938E+00	-4.47550E+00
-1.13300E+00	-6.07820E-01	2.38899E+00	-4.45671E+00
-1.15343E+00	4.38406E-01	2.38862E+00	-4.43806E+00
-3.60947E-01	1.05188E+00	2.38825E+00	-4.41957E+00
5.30959E-01	7.82311E-01	2.38788E+00	-4.40121E+00
7.75116E-01	-3.38634E-02	2.38751E+00	-4.38298E+00
2.48761E-01	-6.14375E-01	2.38714E+00	-4.36488E+00
-4.77638E-01	-4.50384E-01	2.38680E+00	-4.34690E+00
-6.91983E-01	2.58107E-01	2.38647E+00	-4.32905E+00
-1.85695E-01	8.23474E-01	2.38616E+00	-4.31134E+00
5.87769E-01	7.12189E-01	2.38586E+00	-4.29378E+00
9.51547E-01	1.02006E-02	2.38556E+00	-4.27636E+00
6.12429E-01	-6.88361E-01	2.38523E+00	-4.25908E+00
-1.10629E-01	-8.30005E-01	2.38488E+00	-4.24191E+00
-6.08514E-01	-3.72886E-01	2.38453E+00	-4.22482E+00
-5.27427E-01	2.25437E-01	2.38421E+00	-4.20783E+00
-4.26544E-02	4.49579E-01	2.38392E+00	-4.19095E+00
3.51007E-01	1.73077E-01	2.38365E+00	-4.17421E+00
3.02139E-01	-2.77850E-01	2.38340E+00	-4.15760E+00
-1.08942E-01	-4.58331E-01	2.38315E+00	-4.14114E+00
-4.86622E-01	-2.04520E-01	2.38286E+00	-4.12479E+00
-4.95472E-01	2.53618E-01	2.38255E+00	-4.10854E+00
-1.41508E-01	5.30434E-01	2.38225E+00	-4.09237E+00
2.70528E-01	4.27325E-01	2.38197E+00	-4.07630E+00
4.26974E-01	7.50472E-02	2.38170E+00	-4.06032E+00
2.64062E-01	-2.18918E-01	2.38146E+00	-4.04446E+00
-1.82960E-02	-2.48406E-01	2.38124E+00	-4.02872E+00
-1.63563E-01	-6.02052E-02	2.38100E+00	-4.01310E+00
-7.95921E-02	1.28164E-01	2.38075E+00	-3.99759E+00
1.13182E-01	1.38979E-01	2.38050E+00	-3.98217E+00
2.18271E-01	-2.32932E-02	2.38025E+00	-3.96683E+00
1.40132E-01	-2.04585E-01	2.38000E+00	-3.95159E+00
-5.16935E-02	-2.52089E-01	2.37977E+00	-3.93643E+00
-2.04446E-01	-1.38774E-01	2.37956E+00	-3.92138E+00
-2.17119E-01	3.52539E-02	2.37935E+00	-3.90643E+00
-1.09923E-01	1.42910E-01	2.37914E+00	-3.89159E+00
1.47682E-02	1.32399E-01	2.37894E+00	-3.87684E+00
6.74822E-02	5.03028E-02	2.37872E+00	-3.86220E+00
3.65831E-02	-1.62669E-02	2.37849E+00	-3.84763E+00
-2.10187E-02	-1.61955E-02	2.37828E+00	-3.83313E+00
-4.02380E-02	3.37273E-02	2.37808E+00	-3.81874E+00
-1.62815E-03	7.65450E-02	2.37787E+00	-3.80442E+00
6.13241E-02	6.85470E-02	2.37769E+00	-3.79019E+00
9.74715E-02	1.22313E-02	2.37752E+00	-3.77606E+00
8.06659E-02	-5.22487E-02	2.37732E+00	-3.76205E+00
2.62033E-02	-8.29163E-02	2.37710E+00	-3.74808E+00
-2.66428E-02	-6.74041E-02	2.37692E+00	-3.73419E+00
-4.72731E-02	-2.71495E-02	2.37672E+00	-3.72042E+00
-3.46383E-02	4.50896E-03	2.37649E+00	-3.70668E+00
-1.21849E-02	9.77206E-03	2.37633E+00	-3.69299E+00
-4.38941E-03	-2.69925E-03	2.37619E+00	-3.67944E+00
-1.59108E-02	-1.00534E-02	2.37600E+00	-3.66598E+00
-3.02860E-02	1.95787E-03	2.37582E+00	-3.65256E+00
-2.75183E-02	2.60594E-02	2.37566E+00	-3.63926E+00
-3.78923E-03	4.11040E-02	2.37546E+00	-3.62603E+00
2.46007E-02	3.24255E-02	2.37525E+00	-3.61283E+00
3.62101E-02	5.82877E-03	2.37509E+00	-3.59969E+00
2.41514E-02	-1.76582E-02	2.37495E+00	-3.58665E+00
2.02652E-03	-2.11927E-02	2.37481E+00	-3.57370E+00
-9.40488E-03	-7.32479E-03	2.37465E+00	-3.56083E+00
-2.09848E-03	5.42026E-03	2.37449E+00	-3.54802E+00
1.19021E-02	1.32459E-03	2.37433E+00	-3.53529E+00
1.28700E-02	-1.64556E-02	2.37415E+00	-3.52263E+00
-6.18691E-03	-2.83445E-02	2.37397E+00	-3.51000E+00
-3.09681E-02	-1.75247E-02	2.37384E+00	-3.49743E+00
-3.81870E-02	1.23436E-02	2.37372E+00	-3.48497E+00
-1.77676E-02	3.83806E-02	2.37357E+00	-3.47258E+00
1.61450E-02	3.85803E-02	2.37341E+00	-3.46023E+00
3.66202E-02	1.24336E-02	2.37330E+00	-3.44795E+00
2.80686E-02	-1.76121E-02	2.37318E+00	-3.43578E+00
7.61597E-04	-2.61162E-02	2.37300E+00	-3.42367E+00
-1.83321E-02	-8.03605E-03	2.37284E+00	-3.41155E+00
-1.06075E-02	1.63406E-02	2.37275E+00	-3.39952E+00
1.62898E-02	2.01988E-02	2.37262E+00	-3.38762E+00
3.48468E-02	-4.19655E-03	2.37244E+00	-3.37572E+00
2.31663E-02	-3.69921E-02	2.37233E+00	-3.36383E+00
-1.37384E-02	-4.79297E-02	2.37228E+00	-3.35209E+00
-4.69205E-02	-2.40825E-02	2.37213E+00	-3.34047E+00
-4.88245E-02	1.73532E-02	2.37193E+00	-3.32881E+00
-1.81877E-02	4.34978E-02	2.37184E+00	-3.31717E+00
1.84042E-02	3.48609E-02	2.37174E+00	-3.30570E+00
3.01869E-02	2.70174E-03	2.37155E+00	-3.29422E+00
9.85943E-03	-2.13491E-02	2.37145E+00	-3.28274E+00
-1.99915E-02	-1.42456E-02	2.37139E+00	-3.27139E+00
-2.77317E-02	1.72071E-02	2.37130E+00	-3.26014E+00
-2.04776E-03	4.22402E-02	2.37115E+00	-3.24893E+00
3.68632E-02	3.41376E-02	2.37102E+00	-3.23775E+00
5.47348E-02	-4.82800E-03	2.37089E+00	-3.22663E+00
3.39554E-02	-4.42201E-02	2.37074E+00	-3.21554E+00
-9.92917E-03	-5.17566E-02	2.37062E+00	-3.20448E+00
-4.10588E-02	-2.19680E-02	2.37052E+00	-3.19346E+00
-3.45138E-02	1.83909E-02	2.37047E+00	-3.18252E+00
1.42206E-03	3.34835E-02	2.37043E+00	-3.17170E+00
3.20466E-02	1.01982E-02	2.37030E+00	-3.16096E+00
2.68236E-02	-2.94323E-02	2.37014E+00	-3.15021E+00
-1.26597E-02	-4.68919E-02	2.37001E+00	-3.13948E+00
-5.23880E-02	-2.15424E-02	2.36990E+00	-3.12880E+00
-5.48855E-02	2.92650E-02	2.36980E+00	-3.11817E+00
-1.31551E-02	6.30991E-02	2.36971E+00	-3.10760E+00
4.04743E-02	4.89697E-02	2.36963E+00	-3.09709E+00
6.03783E-02	-3.68073E-03	2.36952E+00	-3.08663E+00
2.78022E-02	-5.02049E-02	2.36942E+00	-3.07619E+00
-2.99375E-02	-4.83209E-02	2.36935E+00	-3.06579E+00
-6.04554E-02	3.18892E-03	2.36931E+00	-3.05548E+00
-3.20760E-02	5.97598E-02	2.36926E+00	-3.04525E+00
3.51114E-02	6.78507E-02	2.36915E+00	-3.03510E+00
8.28086E-02	1.35076E-02	2.36899E+00	-3.02495E+00
6.46595E-02	-6.08067E-02	2.36884E+00	-3.01478E+00
-9.68511E-03	-8.99071E-02	2.36874E+00	-3.00464E+00
-7.80189E-02	-4.39598E-02	2.36868E+00	-2.99454E+00
-7.81176E-02	4.05301E-02	2.36866E+00	-2.98452E+00
-5.39157E-03	8.83222E-02	2.36863E+00	-2.97460E+00
7.75458E-02	5.16797E-02	2.36856E+00	-2.96475E+00
9.28366E-02	-4.27841E-02	2.36845E+00	-2.95493E+00
1.82916E-02	-1.12028E-01	2.36832E+00	-2.94512E+00
-8.70884E-02	-8.84831E-02	2.36822E+00	-2.93533E+00
-1.30618E-01	1.62535E-02	2.36813E+00	-2.92557E+00
-6.84039E-02	1.15735E-01	2.36805E+00	-2.91585E+00
5.08867E-02	1.22301E-01	2.36799E+00	-2.90620E+00
1.24327E-01	2.70515E-02	2.36793E+00	-2.89660E+00
8.53335E-02	-8.72323E-02	2.36785E+00	-2.88704E+00
-3.33784E-02	-1.16462E-01	2.36777E+00	-2.87753E+00
-1.24192E-01	-2.93049E-02	2.36768E+00	-2.86804E+00
-9.89124E-02	1.00067E-01	2.36759E+00	-2.85859E+00
2.95783E-02	1.53821E-01	2.36752E+00	-2.84917E+00
1.53485E-01	7.51873E-02	2.36744E+00	-2.83980E+00
1.62540E-01	-7.71708E-02	2.36737E+00	-2.83047E+00
4.25824E-02	-1.76540E-01	2.36730E+00	-2.82117E+00
-1.08365E-01	-1.38186E-01	2.36723E+00	-2.81192E+00
-1.63602E-01	4.58849E-03	2.36716E+00	-2.80272E+00
-7.88639E-02	1.27454E-01	2.36707E+00	-2.79354E+00
6.74112E-02	1.23344E-01	2.36699E+00	-2.78439E+00
1.41783E-01	-2.68230E-03	2.36693E+00	-2.77527E+00
7.31920E-02	-1.36290E-01	2.36686E+00	-2.76620E+00
-8.30837E-02	-1.53209E-01	2.36681E+00	-2.75716E+00
-1.91660E-01	-2.85566E-02	2.36676E+00	-2.74817E+00
