jMRUI Data Textfile
 
Filename: Gly.txt
 
PointsInDataset: 2048
DatasetsInFile: 1
SamplingInterval: 5.00000E-01
ZeroOrderPhase: 0E0
BeginTime: 0E0
TransmitterFrequency: 1.27740E+08
MagneticField: 0E0
TypeOfNucleus: 0E0
NameOfPatient: 
DateOfExperiment: 
Spectrometer: Vespa-Simulation
AdditionalInfo: see 'readme' file for Vespa-Simulation output synopsis
 
  
Signal and FFT 
sig(real)	sig(imag)	fft(real)	fft(imag)
Signal 1 out of 1 in file
2.00000E+00	2.77556E-17	1.07476E+00	-4.24764E+00
1.77605E+00	-8.85048E-01	1.07379E+00	-4.21860E+00
1.18552E+00	-1.57189E+00	1.07285E+00	-4.18995E+00
3.57174E-01	-1.92050E+00	1.07190E+00	-4.16167E+00
-5.32687E-01	-1.86350E+00	1.07099E+00	-4.13372E+00
-1.29768E+00	-1.41911E+00	1.07013E+00	-4.10614E+00
-1.78037E+00	-6.85950E-01	1.06929E+00	-4.07894E+00
-1.88456E+00	1.78714E-01	1.06842E+00	-4.05209E+00
-1.59445E+00	9.92665E-01	1.06756E+00	-4.02554E+00
-9.76635E-01	1.58709E+00	1.06674E+00	-3.99931E+00
-1.64950E-01	1.84156E+00	1.06592E+00	-3.97343E+00
6.68454E-01	1.70834E+00	1.06508E+00	-3.94783E+00
1.34959E+00	1.22124E+00	1.06431E+00	-3.92249E+00
1.73889E+00	4.87268E-01	1.06361E+00	-3.89753E+00
1.75981E+00	-3.36797E-01	1.06282E+00	-3.87291E+00
1.41372E+00	-1.07784E+00	1.06203E+00	-3.84849E+00
7.78439E-01	-1.58275E+00	1.06131E+00	-3.82436E+00
-9.13312E-03	-1.75000E+00	1.06059E+00	-3.80054E+00
-7.82517E-01	-1.55001E+00	1.05986E+00	-3.77697E+00
-1.38081E+00	-1.03016E+00	1.05918E+00	-3.75364E+00
-1.68206E+00	-3.03765E-01	1.05853E+00	-3.73060E+00
-1.62814E+00	4.74603E-01	1.05791E+00	-3.70784E+00
-1.23580E+00	1.14195E+00	1.05728E+00	-3.68535E+00
-5.92082E-01	1.56095E+00	1.05667E+00	-3.66312E+00
1.64975E-01	1.64817E+00	1.05607E+00	-3.64115E+00
8.75858E-01	1.39061E+00	1.05545E+00	-3.61943E+00
1.39316E+00	8.47308E-01	1.05485E+00	-3.59793E+00
1.61212E+00	1.35922E-01	1.05426E+00	-3.57666E+00
1.49175E+00	-5.92699E-01	1.05372E+00	-3.55563E+00
1.06243E+00	-1.18646E+00	1.05318E+00	-3.53488E+00
4.18429E-01	-1.52376E+00	1.05260E+00	-3.51440E+00
-3.02724E-01	-1.53830E+00	1.05196E+00	-3.49410E+00
-9.49568E-01	-1.23208E+00	1.05132E+00	-3.47396E+00
-1.38846E+00	-6.73916E-01	1.05071E+00	-3.45400E+00
-1.53121E+00	1.59830E-02	1.05013E+00	-3.43423E+00
-1.35268E+00	6.91781E-01	1.04957E+00	-3.41466E+00
-8.95093E-01	1.21291E+00	1.04906E+00	-3.39529E+00
-2.58113E-01	1.47319E+00	1.04857E+00	-3.37612E+00
4.22703E-01	1.42246E+00	1.04811E+00	-3.35718E+00
1.00485E+00	1.07611E+00	1.04766E+00	-3.33845E+00
1.36853E+00	5.10953E-01	1.04720E+00	-3.31993E+00
1.44140E+00	-1.51880E-01	1.04674E+00	-3.30161E+00
1.21279E+00	-7.72718E-01	1.04627E+00	-3.28348E+00
7.35033E-01	-1.22289E+00	1.04579E+00	-3.26552E+00
1.11579E-01	-1.41122E+00	1.04531E+00	-3.24772E+00
-5.25424E-01	-1.30257E+00	1.04483E+00	-3.23008E+00
-1.04300E+00	-9.24210E-01	1.04438E+00	-3.21259E+00
-1.33519E+00	-3.59176E-01	1.04398E+00	-3.19529E+00
-1.34463E+00	2.71908E-01	1.04358E+00	-3.17819E+00
-1.07374E+00	8.36484E-01	1.04316E+00	-3.16126E+00
-5.83336E-01	1.21798E+00	1.04274E+00	-3.14449E+00
2.09595E-02	1.33974E+00	1.04232E+00	-3.12787E+00
6.11486E-01	1.18044E+00	1.04190E+00	-3.11139E+00
1.06538E+00	7.77667E-01	1.04151E+00	-3.09506E+00
1.29022E+00	2.19122E-01	1.04115E+00	-3.07890E+00
1.24272E+00	-3.76361E-01	1.04079E+00	-3.06291E+00
9.37009E-01	-8.84157E-01	1.04042E+00	-3.04708E+00
4.40834E-01	-1.19980E+00	1.04005E+00	-3.03139E+00
-1.39460E-01	-1.26053E+00	1.03968E+00	-3.01585E+00
-6.81667E-01	-1.05766E+00	1.03931E+00	-3.00046E+00
-1.07337E+00	-6.37584E-01	1.03892E+00	-2.98519E+00
-1.23533E+00	-9.11875E-02	1.03854E+00	-2.97003E+00
-1.13736E+00	4.65679E-01	1.03820E+00	-2.95501E+00
-8.03921E-01	9.16848E-01	1.03788E+00	-2.94014E+00
-3.08166E-01	1.16994E+00	1.03755E+00	-2.92541E+00
2.44044E-01	1.17531E+00	1.03724E+00	-2.91083E+00
7.36827E-01	9.35704E-01	1.03691E+00	-2.89638E+00
1.06840E+00	5.04857E-01	1.03657E+00	-2.88205E+00
1.17217E+00	-2.44732E-02	1.03624E+00	-2.86782E+00
1.03010E+00	-5.40427E-01	1.03593E+00	-2.85371E+00
6.75594E-01	-9.35760E-01	1.03565E+00	-2.83973E+00
1.85840E-01	-1.12995E+00	1.03538E+00	-2.82590E+00
-3.34976E-01	-1.08566E+00	1.03510E+00	-2.81220E+00
-7.77905E-01	-8.15856E-01	1.03481E+00	-2.79862E+00
-1.05184E+00	-3.80251E-01	1.03452E+00	-2.78516E+00
-1.10233E+00	1.27799E-01	1.03423E+00	-2.77183E+00
-9.22351E-01	6.01276E-01	1.03391E+00	-2.75861E+00
-5.52984E-01	9.42114E-01	1.03356E+00	-2.74547E+00
-7.41478E-02	1.08133E+00	1.03324E+00	-2.73239E+00
4.12676E-01	9.93056E-01	1.03297E+00	-2.71942E+00
8.05904E-01	6.99255E-01	1.03273E+00	-2.70657E+00
1.02510E+00	2.64317E-01	1.03251E+00	-2.69388E+00
1.02728E+00	-2.18919E-01	1.03224E+00	-2.68135E+00
8.15385E-01	-6.48985E-01	1.03189E+00	-2.66887E+00
4.36884E-01	-9.37145E-01	1.03157E+00	-2.65641E+00
-2.67531E-02	-1.02554E+00	1.03131E+00	-2.64402E+00
-4.77589E-01	-8.98862E-01	1.03110E+00	-2.63177E+00
-8.21867E-01	-5.86883E-01	1.03091E+00	-2.61965E+00
-9.89549E-01	-1.57463E-01	1.03072E+00	-2.60766E+00
-9.48423E-01	2.98075E-01	1.03051E+00	-2.59580E+00
-7.10312E-01	6.84402E-01	1.03026E+00	-2.58405E+00
-3.27929E-01	9.22090E-01	1.02996E+00	-2.57237E+00
1.16845E-01	9.63954E-01	1.02965E+00	-2.56072E+00
5.30339E-01	8.04304E-01	1.02939E+00	-2.54912E+00
8.26869E-01	4.79570E-01	1.02918E+00	-2.53763E+00
9.46501E-01	5.99541E-02	1.02897E+00	-2.52625E+00
8.67045E-01	-3.65615E-01	1.02877E+00	-2.51499E+00
6.08158E-01	-7.08367E-01	1.02855E+00	-2.50382E+00
2.26608E-01	-8.98167E-01	1.02829E+00	-2.49273E+00
-1.96234E-01	-8.97873E-01	1.02804E+00	-2.48170E+00
-5.71595E-01	-7.10491E-01	1.02779E+00	-2.47072E+00
-8.22002E-01	-3.77983E-01	1.02757E+00	-2.45980E+00
-8.97225E-01	2.80801E-02	1.02740E+00	-2.44896E+00
-7.84329E-01	4.21985E-01	1.02727E+00	-2.43823E+00
-5.09760E-01	7.21821E-01	1.02716E+00	-2.42764E+00
-1.33273E-01	8.66573E-01	1.02702E+00	-2.41717E+00
2.65135E-01	8.28512E-01	1.02683E+00	-2.40681E+00
6.02087E-01	6.18406E-01	1.02659E+00	-2.39651E+00
8.08330E-01	2.82716E-01	1.02631E+00	-2.38623E+00
8.42927E-01	-1.06630E-01	1.02605E+00	-2.37598E+00
7.01350E-01	-4.67710E-01	1.02584E+00	-2.36576E+00
4.15838E-01	-7.25706E-01	1.02568E+00	-2.35565E+00
4.81265E-02	-8.28463E-01	1.02552E+00	-2.34566E+00
-3.23862E-01	-7.56999E-01	1.02533E+00	-2.33575E+00
-6.22591E-01	-5.28912E-01	1.02511E+00	-2.32592E+00
-7.86934E-01	-1.94170E-01	1.02485E+00	-2.31612E+00
-7.84745E-01	1.75794E-01	1.02459E+00	-2.30633E+00
-6.19076E-01	5.03382E-01	1.02437E+00	-2.29653E+00
-3.26991E-01	7.20974E-01	1.02426E+00	-2.28678E+00
2.86779E-02	7.84943E-01	1.02426E+00	-2.27714E+00
3.72809E-01	6.84366E-01	1.02432E+00	-2.26769E+00
6.33915E-01	4.42752E-01	1.02436E+00	-2.25846E+00
7.58861E-01	1.12647E-01	1.02427E+00	-2.24941E+00
7.23734E-01	-2.35786E-01	1.02399E+00	-2.24043E+00
5.38363E-01	-5.29643E-01	1.02354E+00	-2.23139E+00
2.43695E-01	-7.08576E-01	1.02306E+00	-2.22217E+00
-9.71603E-02	-7.37073E-01	1.02275E+00	-2.21283E+00
-4.12458E-01	-6.11540E-01	1.02269E+00	-2.20360E+00
-6.36896E-01	-3.60536E-01	1.02263E+00	-2.19467E+00
-7.25123E-01	-3.83567E-02	1.02236E+00	-2.18574E+00
-6.60899E-01	2.86827E-01	1.02220E+00	-2.17664E+00
-4.59963E-01	5.47177E-01	1.02230E+00	-2.16766E+00
-1.66314E-01	6.89452E-01	1.02249E+00	-2.15897E+00
1.57413E-01	6.85847E-01	1.02258E+00	-2.15054E+00
4.43294E-01	5.39387E-01	1.02249E+00	-2.14226E+00
6.32349E-01	2.82816E-01	1.02221E+00	-2.13398E+00
6.86694E-01	-2.86868E-02	1.02182E+00	-2.12561E+00
5.97122E-01	-3.29325E-01	1.02144E+00	-2.11713E+00
3.84521E-01	-5.56692E-01	1.02115E+00	-2.10860E+00
9.51092E-02	-6.64517E-01	1.02099E+00	-2.10010E+00
-2.09610E-01	-6.32194E-01	1.02092E+00	-2.09170E+00
-4.65903E-01	-4.68643E-01	1.02090E+00	-2.08343E+00
-6.21120E-01	-2.09989E-01	1.02085E+00	-2.07528E+00
-6.44494E-01	8.83899E-02	1.02076E+00	-2.06723E+00
-5.33229E-01	3.63672E-01	1.02061E+00	-2.05919E+00
-3.12583E-01	5.58918E-01	1.02047E+00	-2.05117E+00
-3.02422E-02	6.34659E-01	1.02035E+00	-2.04320E+00
2.54000E-01	5.76973E-01	1.02025E+00	-2.03529E+00
4.80885E-01	3.99962E-01	1.02016E+00	-2.02744E+00
6.04032E-01	1.42369E-01	1.02006E+00	-2.01966E+00
5.99395E-01	-1.40876E-01	1.01994E+00	-2.01195E+00
4.69955E-01	-3.90326E-01	1.01979E+00	-2.00429E+00
2.44599E-01	-5.54587E-01	1.01961E+00	-1.99665E+00
-2.82126E-02	-6.00728E-01	1.01942E+00	-1.98902E+00
-2.90894E-01	-5.20974E-01	1.01924E+00	-1.98140E+00
-4.88866E-01	-3.33907E-01	1.01910E+00	-1.97381E+00
-5.81888E-01	-8.01782E-02	1.01900E+00	-1.96627E+00
-5.52210E-01	1.86303E-01	1.01892E+00	-1.95880E+00
-4.07929E-01	4.09810E-01	1.01884E+00	-1.95139E+00
-1.80926E-01	5.44432E-01	1.01874E+00	-1.94405E+00
8.02616E-02	5.63532E-01	1.01864E+00	-1.93674E+00
3.20654E-01	4.64910E-01	1.01854E+00	-1.92947E+00
4.90484E-01	2.70951E-01	1.01844E+00	-1.92224E+00
5.55465E-01	2.35563E-02	1.01836E+00	-1.91507E+00
5.03689E-01	-2.24891E-01	1.01827E+00	-1.90796E+00
3.47765E-01	-4.22606E-01	1.01815E+00	-1.90089E+00
1.21835E-01	-5.29173E-01	1.01803E+00	-1.89383E+00
-1.25983E-01	-5.23833E-01	1.01793E+00	-1.88682E+00
-3.43687E-01	-4.09424E-01	1.01783E+00	-1.87986E+00
-4.86384E-01	-2.11485E-01	1.01770E+00	-1.87294E+00
-5.25508E-01	2.74364E-02	1.01759E+00	-1.86604E+00
-4.54520E-01	2.56917E-01	1.01749E+00	-1.85919E+00
-2.89930E-01	4.29287E-01	1.01737E+00	-1.85239E+00
-6.75193E-02	5.09515E-01	1.01721E+00	-1.84560E+00
1.65517E-01	4.82340E-01	1.01709E+00	-1.83877E+00
3.60433E-01	3.55081E-01	1.01707E+00	-1.83199E+00
4.77206E-01	1.55817E-01	1.01707E+00	-1.82536E+00
4.92723E-01	-7.28089E-02	1.01701E+00	-1.81882E+00
4.05329E-01	-2.82701E-01	1.01688E+00	-1.81231E+00
2.34837E-01	-4.30414E-01	1.01669E+00	-1.80577E+00
1.80687E-02	-4.86139E-01	1.01654E+00	-1.79917E+00
-1.99062E-01	-4.39709E-01	1.01649E+00	-1.79261E+00
-3.71356E-01	-3.02380E-01	1.01648E+00	-1.78618E+00
-4.63584E-01	-1.04183E-01	1.01641E+00	-1.77983E+00
-4.57777E-01	1.12633E-01	1.01629E+00	-1.77350E+00
-3.56672E-01	3.02601E-01	1.01616E+00	-1.76716E+00
-1.82822E-01	4.26554E-01	1.01604E+00	-1.76085E+00
2.64128E-02	4.59693E-01	1.01592E+00	-1.75455E+00
2.26862E-01	3.96541E-01	1.01582E+00	-1.74826E+00
3.76940E-01	2.51744E-01	1.01576E+00	-1.74201E+00
4.46135E-01	5.67466E-02	1.01571E+00	-1.73581E+00
