jMRUI Data Textfile
 
Filename: GSH.txt
 
PointsInDataset: 2048
DatasetsInFile: 1
SamplingInterval: 5.00000E-01
ZeroOrderPhase: 0E0
BeginTime: 0E0
TransmitterFrequency: 1.27740E+08
MagneticField: 0E0
TypeOfNucleus: 0E0
NameOfPatient: 
DateOfExperiment: 
Spectrometer: Vespa-Simulation
AdditionalInfo: see 'readme' file for Vespa-Simulation output synopsis
 
  
Signal and FFT 
sig(real)	sig(imag)	fft(real)	fft(imag)
Signal 1 out of 1 in file
1.03469E+01	-1.61784E-02	9.63773E+00	-2.81825E+01
7.64442E+00	-4.47566E+00	9.16619E+00	-2.73495E+01
1.69154E+00	-6.40779E+00	8.76306E+00	-2.65789E+01
-3.26802E+00	-5.15448E+00	8.41802E+00	-2.58644E+01
-4.19420E+00	-2.18189E+00	8.12138E+00	-2.52008E+01
-1.48885E+00	2.21314E-01	7.86486E+00	-2.45834E+01
1.72399E+00	7.00855E-01	7.64168E+00	-2.40076E+01
2.45626E+00	-3.68002E-01	7.44628E+00	-2.34693E+01
2.87681E-01	-1.52736E+00	7.27423E+00	-2.29649E+01
-2.62233E+00	-1.58008E+00	7.12196E+00	-2.24911E+01
-3.69552E+00	-4.41243E-01	6.98652E+00	-2.20449E+01
-2.18205E+00	1.07373E+00	6.86547E+00	-2.16238E+01
4.52738E-01	2.10231E+00	6.75678E+00	-2.12255E+01
2.11876E+00	2.36231E+00	6.65881E+00	-2.08479E+01
2.02765E+00	2.08970E+00	6.57020E+00	-2.04893E+01
1.18643E+00	1.55927E+00	6.48979E+00	-2.01480E+01
1.16451E+00	7.84912E-01	6.41659E+00	-1.98227E+01
2.44601E+00	-3.29689E-01	6.34977E+00	-1.95120E+01
3.94780E+00	-1.66275E+00	6.28861E+00	-1.92149E+01
4.07860E+00	-2.80945E+00	6.23245E+00	-1.89304E+01
2.25806E+00	-3.37805E+00	6.18071E+00	-1.86576E+01
-5.36355E-01	-3.31182E+00	6.13296E+00	-1.83955E+01
-2.63467E+00	-2.86737E+00	6.08880E+00	-1.81434E+01
-3.07223E+00	-2.27714E+00	6.04790E+00	-1.79007E+01
-2.23363E+00	-1.49840E+00	6.00993E+00	-1.76667E+01
-1.26147E+00	-3.69546E-01	5.97458E+00	-1.74409E+01
-9.20207E-01	9.79167E-01	5.94161E+00	-1.72228E+01
-1.02450E+00	1.96276E+00	5.91082E+00	-1.70119E+01
-8.81566E-01	1.93453E+00	5.88201E+00	-1.68077E+01
-1.74384E-01	8.48994E-01	5.85510E+00	-1.66098E+01
6.65413E-01	-4.79255E-01	5.82990E+00	-1.64180E+01
9.56688E-01	-9.16990E-01	5.80620E+00	-1.62320E+01
5.78648E-01	2.67165E-03	5.78380E+00	-1.60514E+01
2.02862E-01	1.52659E+00	5.76262E+00	-1.58757E+01
6.44457E-01	2.16084E+00	5.74267E+00	-1.57048E+01
1.93914E+00	8.91526E-01	5.72388E+00	-1.55383E+01
3.08494E+00	-1.86362E+00	5.70616E+00	-1.53763E+01
2.79919E+00	-4.43534E+00	5.68943E+00	-1.52183E+01
6.78940E-01	-5.13684E+00	5.67365E+00	-1.50643E+01
-2.27987E+00	-3.55624E+00	5.65866E+00	-1.49142E+01
-4.32641E+00	-8.38422E-01	5.64431E+00	-1.47676E+01
-4.27320E+00	1.25857E+00	5.63067E+00	-1.46244E+01
-2.39727E+00	1.71657E+00	5.61770E+00	-1.44844E+01
-1.81512E-01	8.99985E-01	5.60529E+00	-1.43475E+01
8.70083E-01	2.89784E-02	5.59355E+00	-1.42135E+01
3.55561E-01	4.02038E-02	5.58242E+00	-1.40824E+01
-8.51872E-01	8.55305E-01	5.57168E+00	-1.39542E+01
-1.44163E+00	1.62420E+00	5.56135E+00	-1.38284E+01
-7.57054E-01	1.60454E+00	5.55153E+00	-1.37051E+01
7.51455E-01	8.17605E-01	5.54222E+00	-1.35842E+01
2.00118E+00	-8.15726E-02	5.53337E+00	-1.34656E+01
2.19221E+00	-5.05377E-01	5.52496E+00	-1.33493E+01
1.37901E+00	-4.82877E-01	5.51692E+00	-1.32353E+01
2.86879E-01	-5.41532E-01	5.50903E+00	-1.31235E+01
-3.75451E-01	-1.08496E+00	5.50125E+00	-1.30136E+01
-4.78061E-01	-1.90888E+00	5.49378E+00	-1.29053E+01
-4.60539E-01	-2.33710E+00	5.48679E+00	-1.27988E+01
-8.29614E-01	-1.84303E+00	5.48027E+00	-1.26942E+01
-1.64310E+00	-5.57524E-01	5.47406E+00	-1.25915E+01
-2.42175E+00	8.15047E-01	5.46798E+00	-1.24906E+01
-2.53844E+00	1.58203E+00	5.46195E+00	-1.23914E+01
-1.73905E+00	1.59770E+00	5.45601E+00	-1.22937E+01
-3.68081E-01	1.27164E+00	5.45021E+00	-1.21973E+01
8.66651E-01	1.09140E+00	5.44464E+00	-1.21022E+01
1.38925E+00	1.14880E+00	5.43937E+00	-1.20085E+01
1.12968E+00	1.12086E+00	5.43441E+00	-1.19162E+01
5.14673E-01	6.86582E-01	5.42971E+00	-1.18252E+01
1.14266E-01	-6.79005E-02	5.42520E+00	-1.17357E+01
2.25921E-01	-6.80470E-01	5.42082E+00	-1.16475E+01
6.94785E-01	-7.59531E-01	5.41650E+00	-1.15605E+01
1.07202E+00	-4.00126E-01	5.41224E+00	-1.14747E+01
9.64464E-01	-1.35269E-01	5.40809E+00	-1.13900E+01
3.09350E-01	-4.31825E-01	5.40406E+00	-1.13063E+01
-6.09056E-01	-1.19325E+00	5.40018E+00	-1.12237E+01
-1.37866E+00	-1.75708E+00	5.39647E+00	-1.11421E+01
-1.72653E+00	-1.43603E+00	5.39294E+00	-1.10615E+01
-1.63800E+00	-1.45343E-01	5.38955E+00	-1.09821E+01
-1.27407E+00	1.44505E+00	5.38620E+00	-1.09036E+01
-7.98081E-01	2.39207E+00	5.38287E+00	-1.08260E+01
-2.75829E-01	2.20254E+00	5.37960E+00	-1.07493E+01
2.81691E-01	1.19171E+00	5.37645E+00	-1.06735E+01
8.10346E-01	1.86347E-01	5.37345E+00	-1.05984E+01
1.15833E+00	-1.59094E-01	5.37058E+00	-1.05242E+01
1.18464E+00	1.48929E-01	5.36784E+00	-1.04509E+01
9.03214E-01	5.39007E-01	5.36515E+00	-1.03785E+01
5.19637E-01	4.30608E-01	5.36249E+00	-1.03068E+01
2.92478E-01	-2.54713E-01	5.35987E+00	-1.02359E+01
3.19093E-01	-1.05652E+00	5.35734E+00	-1.01656E+01
4.37122E-01	-1.40663E+00	5.35492E+00	-1.00961E+01
3.50688E-01	-1.11962E+00	5.35254E+00	-1.00273E+01
-1.06782E-01	-5.12917E-01	5.35022E+00	-9.95922E+00
-7.95850E-01	-7.96291E-02	5.34797E+00	-9.89177E+00
-1.34541E+00	-3.53048E-02	5.34578E+00	-9.82498E+00
-1.43032E+00	-1.51565E-01	5.34365E+00	-9.75882E+00
-1.02247E+00	-1.15770E-02	5.34159E+00	-9.69330E+00
-4.00817E-01	5.61456E-01	5.33956E+00	-9.62838E+00
8.71251E-02	1.29809E+00	5.33759E+00	-9.56404E+00
3.01571E-01	1.68577E+00	5.33568E+00	-9.50028E+00
3.82794E-01	1.39975E+00	5.33379E+00	-9.43709E+00
5.63916E-01	5.83059E-01	5.33195E+00	-9.37438E+00
9.05140E-01	-2.64339E-01	5.33028E+00	-9.31220E+00
1.20341E+00	-6.84983E-01	5.32869E+00	-9.25068E+00
1.16800E+00	-6.06731E-01	5.32702E+00	-9.18976E+00
7.03697E-01	-3.46815E-01	5.32531E+00	-9.12924E+00
3.58724E-02	-2.95185E-01	5.32370E+00	-9.06916E+00
-4.51404E-01	-5.66562E-01	5.32211E+00	-9.00963E+00
-5.31067E-01	-9.19012E-01	5.32047E+00	-8.95048E+00
-3.22112E-01	-9.91023E-01	5.31897E+00	-8.89165E+00
-1.76836E-01	-6.31249E-01	5.31767E+00	-8.83336E+00
-3.58438E-01	-2.80983E-02	5.31636E+00	-8.77567E+00
-7.92308E-01	4.62906E-01	5.31495E+00	-8.71839E+00
-1.11439E+00	6.25504E-01	5.31357E+00	-8.66145E+00
-9.79950E-01	5.44993E-01	5.31224E+00	-8.60493E+00
-3.65516E-01	4.89203E-01	5.31084E+00	-8.54879E+00
3.98219E-01	6.28795E-01	5.30953E+00	-8.49284E+00
8.89273E-01	8.59124E-01	5.30848E+00	-8.43729E+00
9.23509E-01	8.89088E-01	5.30749E+00	-8.38232E+00
6.68487E-01	5.16742E-01	5.30640E+00	-8.32777E+00
4.55630E-01	-1.58779E-01	5.30528E+00	-8.27352E+00
4.70152E-01	-7.85324E-01	5.30421E+00	-8.21964E+00
5.97151E-01	-1.03038E+00	5.30307E+00	-8.16611E+00
5.53057E-01	-8.43212E-01	5.30190E+00	-8.11277E+00
1.72718E-01	-4.78925E-01	5.30089E+00	-8.05966E+00
-4.14111E-01	-2.65938E-01	5.30000E+00	-8.00694E+00
-8.76532E-01	-3.22040E-01	5.29912E+00	-7.95461E+00
-9.59936E-01	-4.66610E-01	5.29822E+00	-7.90260E+00
-6.96300E-01	-4.01629E-01	5.29730E+00	-7.85087E+00
-3.61048E-01	3.24521E-03	5.29639E+00	-7.79942E+00
-2.19944E-01	5.75223E-01	5.29548E+00	-7.74823E+00
-2.96606E-01	9.71823E-01	5.29455E+00	-7.69725E+00
-3.67888E-01	9.64639E-01	5.29368E+00	-7.64645E+00
-1.86814E-01	6.23903E-01	5.29292E+00	-7.59588E+00
2.72755E-01	2.45021E-01	5.29229E+00	-7.54561E+00
7.71392E-01	8.63590E-02	5.29168E+00	-7.49567E+00
9.99469E-01	1.51934E-01	5.29107E+00	-7.44605E+00
8.37116E-01	2.08564E-01	5.29041E+00	-7.39672E+00
4.47619E-01	1.68252E-02	5.28964E+00	-7.34761E+00
1.24584E-01	-4.33439E-01	5.28880E+00	-7.29862E+00
3.33962E-02	-8.93371E-01	5.28798E+00	-7.24968E+00
7.94439E-02	-1.05655E+00	5.28732E+00	-7.20087E+00
1.81903E-02	-8.13389E-01	5.28678E+00	-7.15232E+00
-2.95900E-01	-3.36126E-01	5.28627E+00	-7.10405E+00
-7.48762E-01	7.43655E-02	5.28574E+00	-7.05600E+00
-1.04193E+00	2.38809E-01	5.28517E+00	-7.00815E+00
-9.40513E-01	2.25185E-01	5.28455E+00	-6.96044E+00
-4.77331E-01	2.46726E-01	5.28391E+00	-6.91280E+00
6.51433E-02	4.35122E-01	5.28334E+00	-6.86520E+00
3.79749E-01	7.02349E-01	5.28296E+00	-6.81767E+00
3.72954E-01	8.17178E-01	5.28279E+00	-6.77041E+00
2.15708E-01	6.23868E-01	5.28269E+00	-6.72352E+00
1.71471E-01	1.98924E-01	5.28246E+00	-6.67694E+00
3.57016E-01	-2.01716E-01	5.28209E+00	-6.63051E+00
6.42725E-01	-3.60549E-01	5.28161E+00	-6.58425E+00
7.71388E-01	-2.83896E-01	5.28087E+00	-6.53799E+00
5.84310E-01	-1.84788E-01	5.28012E+00	-6.49145E+00
1.56643E-01	-2.76220E-01	5.27974E+00	-6.44485E+00
-2.69377E-01	-5.61776E-01	5.27961E+00	-6.39858E+00
-4.86517E-01	-8.15983E-01	5.27934E+00	-6.35262E+00
-4.80566E-01	-7.76893E-01	5.27889E+00	-6.30657E+00
-4.11629E-01	-3.80992E-01	5.27865E+00	-6.26042E+00
-4.45014E-01	1.70030E-01	5.27864E+00	-6.21441E+00
-5.87163E-01	5.70889E-01	5.27877E+00	-6.16868E+00
-6.73175E-01	6.58887E-01	5.27883E+00	-6.12326E+00
-5.15742E-01	5.25629E-01	5.27871E+00	-6.07802E+00
-8.50051E-02	3.99954E-01	5.27836E+00	-6.03279E+00
4.37510E-01	4.17191E-01	5.27790E+00	-5.98742E+00
7.80213E-01	4.92561E-01	5.27746E+00	-5.94190E+00
7.80684E-01	4.17044E-01	5.27716E+00	-5.89625E+00
5.01796E-01	8.40835E-02	5.27710E+00	-5.85062E+00
1.74455E-01	-3.72423E-01	5.27713E+00	-5.80516E+00
1.64929E-02	-6.69584E-01	5.27716E+00	-5.75977E+00
7.32556E-02	-6.23281E-01	5.27723E+00	-5.71447E+00
2.01173E-01	-3.25114E-01	5.27724E+00	-5.66924E+00
1.97690E-01	-7.51385E-02	5.27719E+00	-5.62398E+00
-3.25122E-02	-1.16358E-01	5.27715E+00	-5.57866E+00
-4.05043E-01	-4.04323E-01	5.27715E+00	-5.53332E+00
-7.24738E-01	-6.26245E-01	5.27717E+00	-5.48795E+00
-8.30472E-01	-4.67101E-01	5.27721E+00	-5.44255E+00
-6.98337E-01	1.03021E-01	5.27729E+00	-5.39711E+00
-4.30596E-01	7.74026E-01	5.27742E+00	-5.35164E+00
-1.56207E-01	1.12925E+00	5.27757E+00	-5.30619E+00
6.35228E-02	9.72335E-01	5.27769E+00	-5.26072E+00
2.47309E-01	4.70870E-01	5.27775E+00	-5.21516E+00
4.27031E-01	4.86360E-04	5.27781E+00	-5.16946E+00
5.78016E-01	-1.68118E-01	5.27793E+00	-5.12362E+00
6.19929E-01	-6.76403E-02	5.27814E+00	-5.07769E+00
4.91944E-01	4.19012E-02	5.27840E+00	-5.03170E+00
2.29719E-01	-6.27302E-02	5.27871E+00	-4.98565E+00
-3.71617E-02	-3.61313E-01	5.27902E+00	-4.93954E+00
-1.78724E-01	-6.20457E-01	5.27932E+00	-4.89333E+00
-1.72255E-01	-6.18011E-01	5.27961E+00	-4.84699E+00
