jMRUI Data Textfile
 
Filename: Lac.txt
 
PointsInDataset: 2048
DatasetsInFile: 1
SamplingInterval: 5.00000E-01
ZeroOrderPhase: 0E0
BeginTime: 0E0
TransmitterFrequency: 1.27740E+08
MagneticField: 0E0
TypeOfNucleus: 0E0
NameOfPatient: 
DateOfExperiment: 
Spectrometer: Vespa-Simulation
AdditionalInfo: see 'readme' file for Vespa-Simulation output synopsis
 
  
Signal and FFT 
sig(real)	sig(imag)	fft(real)	fft(imag)
Signal 1 out of 1 in file
3.37046E+00	3.87164E-03	1.94323E+00	-4.51707E+00
1.23446E+00	-2.75581E+00	1.93630E+00	-4.47585E+00
-1.78387E+00	-1.41946E+00	1.92990E+00	-4.43522E+00
-1.07537E+00	1.60581E+00	1.92402E+00	-4.39586E+00
1.99433E+00	1.38604E+00	1.91791E+00	-4.35750E+00
2.38642E+00	-1.77585E+00	1.91198E+00	-4.31948E+00
-6.48205E-01	-2.95058E+00	1.90666E+00	-4.28231E+00
-2.50778E+00	-3.86414E-01	1.90143E+00	-4.24619E+00
-5.42509E-01	1.85059E+00	1.89616E+00	-4.21069E+00
1.88725E+00	3.67669E-01	1.89115E+00	-4.17571E+00
8.24935E-01	-2.29975E+00	1.88650E+00	-4.14147E+00
-2.09880E+00	-1.81581E+00	1.88197E+00	-4.10804E+00
-2.36244E+00	1.14471E+00	1.87747E+00	-4.07522E+00
3.27643E-01	2.08362E+00	1.87314E+00	-4.04291E+00
1.70674E+00	-2.19384E-01	1.86907E+00	-4.01121E+00
-2.79596E-01	-1.91853E+00	1.86511E+00	-3.98020E+00
-2.35391E+00	-2.47296E-01	1.86120E+00	-3.94974E+00
-1.17569E+00	2.20625E+00	1.85741E+00	-3.91976E+00
1.45481E+00	1.68602E+00	1.85381E+00	-3.89031E+00
1.54877E+00	-8.59510E-01	1.85030E+00	-3.86145E+00
-8.11497E-01	-1.40256E+00	1.84680E+00	-3.83306E+00
-1.74143E+00	8.07733E-01	1.84341E+00	-3.80503E+00
2.78543E-01	2.19055E+00	1.84024E+00	-3.77742E+00
2.11522E+00	5.44545E-01	1.83723E+00	-3.75035E+00
9.99966E-01	-1.57345E+00	1.83431E+00	-3.72377E+00
-1.18794E+00	-9.72619E-01	1.83149E+00	-3.69764E+00
-9.99142E-01	1.20470E+00	1.82875E+00	-3.67198E+00
1.17913E+00	1.41402E+00	1.82602E+00	-3.64680E+00
1.86202E+00	-7.00582E-01	1.82327E+00	-3.62196E+00
-1.23550E-02	-1.86289E+00	1.82059E+00	-3.59740E+00
-1.51857E+00	-3.72915E-01	1.81807E+00	-3.57318E+00
-4.19972E-01	1.31738E+00	1.81565E+00	-3.54937E+00
1.39549E+00	5.59789E-01	1.81329E+00	-3.52593E+00
1.00172E+00	-1.37906E+00	1.81101E+00	-3.50282E+00
-9.87058E-01	-1.43099E+00	1.80881E+00	-3.48008E+00
-1.49969E+00	4.48637E-01	1.80665E+00	-3.45771E+00
1.43184E-01	1.32582E+00	1.80450E+00	-3.43563E+00
1.27399E+00	-5.61546E-02	1.80242E+00	-3.41383E+00
1.42080E-01	-1.40314E+00	1.80043E+00	-3.39233E+00
-1.41465E+00	-5.68644E-01	1.79850E+00	-3.37115E+00
-9.61787E-01	1.12756E+00	1.79662E+00	-3.35027E+00
7.39571E-01	1.08164E+00	1.79480E+00	-3.32968E+00
1.04180E+00	-5.16843E-01	1.79301E+00	-3.30938E+00
-4.19293E-01	-1.09938E+00	1.79126E+00	-3.28936E+00
-1.26436E+00	2.08456E-01	1.78954E+00	-3.26960E+00
-1.70167E-01	1.31109E+00	1.78785E+00	-3.25009E+00
1.13135E+00	5.12609E-01	1.78618E+00	-3.23080E+00
6.62831E-01	-8.81922E-01	1.78460E+00	-3.21174E+00
-7.37929E-01	-7.16717E-01	1.78309E+00	-3.19295E+00
-8.43378E-01	6.51805E-01	1.78158E+00	-3.17443E+00
4.62163E-01	1.02651E+00	1.78010E+00	-3.15611E+00
1.10623E+00	-1.52481E-01	1.77866E+00	-3.13801E+00
1.29490E-01	-1.02332E+00	1.77727E+00	-3.12016E+00
-8.91178E-01	-2.89007E-01	1.77586E+00	-3.10252E+00
-3.97590E-01	8.15896E-01	1.77449E+00	-3.08502E+00
7.54563E-01	5.56614E-01	1.77322E+00	-3.06774E+00
7.40350E-01	-6.06811E-01	1.77199E+00	-3.05070E+00
-3.75269E-01	-8.44127E-01	1.77077E+00	-3.03388E+00
-8.38612E-01	1.57596E-01	1.76957E+00	-3.01726E+00
6.92717E-03	7.96705E-01	1.76840E+00	-3.00084E+00
7.75780E-01	1.22665E-01	1.76721E+00	-2.98461E+00
2.84109E-01	-7.44207E-01	1.76603E+00	-2.96852E+00
-6.46609E-01	-4.53309E-01	1.76490E+00	-2.95258E+00
-5.68658E-01	4.91667E-01	1.76386E+00	-2.93681E+00
3.36161E-01	6.16536E-01	1.76285E+00	-2.92128E+00
6.35927E-01	-2.07333E-01	1.76181E+00	-2.90595E+00
-8.23473E-02	-6.52769E-01	1.76075E+00	-2.89075E+00
-6.48875E-01	-6.02912E-02	1.75972E+00	-2.87568E+00
-2.03908E-01	5.99290E-01	1.75873E+00	-2.86076E+00
5.10865E-01	3.17883E-01	1.75776E+00	-2.84599E+00
3.94764E-01	-4.10058E-01	1.75683E+00	-2.83135E+00
-3.10017E-01	-4.48143E-01	1.75598E+00	-2.81688E+00
-4.86147E-01	2.05807E-01	1.75514E+00	-2.80264E+00
9.38981E-02	5.02894E-01	1.75423E+00	-2.78855E+00
4.91675E-01	1.82212E-02	1.75332E+00	-2.77453E+00
1.19834E-01	-4.54122E-01	1.75247E+00	-2.76060E+00
-3.96669E-01	-2.04416E-01	1.75170E+00	-2.74686E+00
-2.68980E-01	3.26235E-01	1.75091E+00	-2.73329E+00
2.49780E-01	3.13494E-01	1.75010E+00	-2.71985E+00
3.41318E-01	-1.71819E-01	1.74932E+00	-2.70651E+00
-9.18510E-02	-3.54736E-01	1.74855E+00	-2.69332E+00
-3.49953E-01	9.75195E-03	1.74778E+00	-2.68026E+00
-6.66838E-02	3.22447E-01	1.74699E+00	-2.66729E+00
2.77376E-01	1.25975E-01	1.74625E+00	-2.65438E+00
1.65878E-01	-2.27710E-01	1.74557E+00	-2.64163E+00
-1.79810E-01	-1.95054E-01	1.74490E+00	-2.62903E+00
-2.18591E-01	1.28020E-01	1.74420E+00	-2.61653E+00
6.79699E-02	2.29061E-01	1.74353E+00	-2.60412E+00
2.17926E-01	-8.73965E-03	1.74290E+00	-2.59181E+00
3.58821E-02	-1.90515E-01	1.74228E+00	-2.57965E+00
-1.60993E-01	-6.44312E-02	1.74165E+00	-2.56759E+00
-8.70912E-02	1.34455E-01	1.74105E+00	-2.55560E+00
1.03363E-01	1.08308E-01	1.74050E+00	-2.54374E+00
1.19534E-01	-6.33328E-02	1.73995E+00	-2.53203E+00
-2.35817E-02	-1.12797E-01	1.73938E+00	-2.52043E+00
-9.37931E-02	-3.78965E-03	1.73880E+00	-2.50890E+00
-1.87883E-02	7.47273E-02	1.73826E+00	-2.49747E+00
5.86322E-02	3.02909E-02	1.73771E+00	-2.48616E+00
4.08541E-02	-3.88607E-02	1.73713E+00	-2.47494E+00
-1.30118E-02	-4.30503E-02	1.73655E+00	-2.46377E+00
-3.16682E-02	-1.07903E-02	1.73603E+00	-2.45268E+00
-2.38957E-02	1.21974E-02	1.73552E+00	-2.44171E+00
-6.46947E-03	2.72038E-02	1.73497E+00	-2.43084E+00
2.68216E-02	2.27648E-02	1.73442E+00	-2.42000E+00
4.08281E-02	-2.35729E-02	1.73393E+00	-2.40923E+00
-1.23900E-02	-6.07794E-02	1.73346E+00	-2.39857E+00
-7.62497E-02	-8.96079E-03	1.73298E+00	-2.38798E+00
-3.57809E-02	8.18036E-02	1.73254E+00	-2.37744E+00
7.83067E-02	6.21481E-02	1.73220E+00	-2.36701E+00
8.69017E-02	-6.91282E-02	1.73190E+00	-2.35678E+00
-5.41757E-02	-1.11583E-01	1.73151E+00	-2.34677E+00
-1.34766E-01	3.05259E-02	1.73089E+00	-2.33684E+00
-2.24736E-03	1.51435E-01	1.73018E+00	-2.32676E+00
1.57730E-01	4.01930E-02	1.72955E+00	-2.31659E+00
7.87139E-02	-1.53978E-01	1.72904E+00	-2.30643E+00
-1.42210E-01	-1.16348E-01	1.72867E+00	-2.29630E+00
-1.53513E-01	1.22116E-01	1.72848E+00	-2.28628E+00
9.11792E-02	1.88299E-01	1.72842E+00	-2.27654E+00
2.15390E-01	-4.89649E-02	1.72827E+00	-2.26712E+00
2.49370E-04	-2.30169E-01	1.72786E+00	-2.25781E+00
-2.32910E-01	-5.08467E-02	1.72735E+00	-2.24840E+00
-1.01307E-01	2.26697E-01	1.72688E+00	-2.23897E+00
2.11022E-01	1.53661E-01	1.72643E+00	-2.22957E+00
2.06310E-01	-1.80693E-01	1.72602E+00	-2.22020E+00
-1.33539E-01	-2.50788E-01	1.72567E+00	-2.21088E+00
-2.79429E-01	7.63991E-02	1.72536E+00	-2.20166E+00
1.84107E-02	2.94268E-01	1.72503E+00	-2.19253E+00
3.02299E-01	4.04907E-02	1.72472E+00	-2.18344E+00
1.07478E-01	-3.01723E-01	1.72446E+00	-2.17442E+00
-2.80726E-01	-1.81213E-01	1.72420E+00	-2.16553E+00
-2.46323E-01	2.34467E-01	1.72390E+00	-2.15673E+00
1.75595E-01	2.90594E-01	1.72355E+00	-2.14796E+00
3.20946E-01	-1.18739E-01	1.72321E+00	-2.13922E+00
-5.92411E-02	-3.51049E-01	1.72288E+00	-2.13055E+00
-3.75440E-01	-1.89459E-02	1.72254E+00	-2.12192E+00
-1.13469E-01	3.71503E-01	1.72220E+00	-2.11331E+00
3.31962E-01	1.98018E-01	1.72189E+00	-2.10475E+00
2.55529E-01	-2.79326E-01	1.72160E+00	-2.09627E+00
-2.34677E-01	-3.02033E-01	1.72129E+00	-2.08786E+00
-3.59980E-01	1.84483E-01	1.72096E+00	-2.07948E+00
1.00571E-01	4.16665E-01	1.72064E+00	-2.07111E+00
4.34837E-01	1.11620E-02	1.72037E+00	-2.06279E+00
1.09460E-01	-4.06627E-01	1.72012E+00	-2.05454E+00
-3.68769E-01	-1.73737E-01	1.71986E+00	-2.04635E+00
-2.34179E-01	3.48253E-01	1.71962E+00	-2.03820E+00
3.17620E-01	3.22856E-01	1.71942E+00	-2.03012E+00
4.15320E-01	-2.34392E-01	1.71920E+00	-2.02215E+00
-1.11781E-01	-4.56888E-01	1.71891E+00	-2.01422E+00
-4.42489E-01	9.23919E-03	1.71861E+00	-2.00627E+00
-5.21745E-02	4.27161E-01	1.71838E+00	-1.99834E+00
4.41830E-01	1.21773E-01	1.71818E+00	-1.99051E+00
2.40835E-01	-4.39637E-01	1.71794E+00	-1.98275E+00
-3.63229E-01	-3.68017E-01	1.71771E+00	-1.97499E+00
-4.29971E-01	2.37856E-01	1.71753E+00	-1.96731E+00
1.43184E-01	4.29196E-01	1.71730E+00	-1.95977E+00
4.42333E-01	-9.61851E-02	1.71693E+00	-1.95223E+00
-2.38495E-02	-5.00662E-01	1.71656E+00	-1.94454E+00
-5.32936E-01	-1.22001E-01	1.71639E+00	-1.93683E+00
-2.78247E-01	4.68110E-01	1.71634E+00	-1.92933E+00
3.48706E-01	3.53453E-01	1.71619E+00	-1.92201E+00
3.63370E-01	-2.75075E-01	1.71594E+00	-1.91469E+00
-2.54340E-01	-4.08296E-01	1.71567E+00	-1.90738E+00
-5.14992E-01	1.86379E-01	1.71536E+00	-1.90007E+00
1.98848E-02	5.83740E-01	1.71506E+00	-1.89269E+00
5.32991E-01	1.55739E-01	1.71488E+00	-1.88531E+00
2.33565E-01	-4.27821E-01	1.71482E+00	-1.87804E+00
-3.87761E-01	-2.48902E-01	1.71474E+00	-1.87097E+00
-3.25955E-01	4.03780E-01	1.71454E+00	-1.86397E+00
3.46836E-01	4.81213E-01	1.71427E+00	-1.85698E+00
5.83935E-01	-1.67659E-01	1.71392E+00	-1.84994E+00
1.47235E-02	-5.47020E-01	1.71361E+00	-1.84278E+00
-4.62740E-01	-8.24417E-02	1.71348E+00	-1.83563E+00
-9.62126E-02	4.66645E-01	1.71345E+00	-1.82865E+00
5.27044E-01	2.02822E-01	1.71336E+00	-1.82183E+00
4.02179E-01	-4.86231E-01	1.71318E+00	-1.81505E+00
-3.03089E-01	-5.31925E-01	1.71294E+00	-1.80827E+00
-5.05783E-01	1.28073E-01	1.71269E+00	-1.80145E+00
8.38569E-02	4.46783E-01	1.71247E+00	-1.79464E+00
5.01551E-01	-7.91740E-02	1.71229E+00	-1.78783E+00
5.18109E-02	-6.10005E-01	1.71218E+00	-1.78105E+00
-5.88084E-01	-2.86581E-01	1.71211E+00	-1.77438E+00
-4.32631E-01	4.09380E-01	1.71202E+00	-1.76781E+00
2.55778E-01	4.11738E-01	1.71186E+00	-1.76131E+00
3.79726E-01	-2.47472E-01	1.71163E+00	-1.75481E+00
-2.58948E-01	-4.88018E-01	1.71139E+00	-1.74827E+00
-6.43554E-01	1.10443E-01	1.71116E+00	-1.74171E+00
-1.47744E-01	6.40392E-01	1.71098E+00	-1.73515E+00
4.73348E-01	2.96596E-01	1.71089E+00	-1.72861E+00
2.73706E-01	-3.53599E-01	1.71085E+00	-1.72219E+00
-3.91116E-01	-2.67697E-01	1.71078E+00	-1.71588E+00
-4.27634E-01	4.24299E-01	1.71063E+00	-1.70962E+00
