jMRUI Data Textfile
 
Filename: mI.txt
 
PointsInDataset: 2048
DatasetsInFile: 1
SamplingInterval: 5.00000E-01
ZeroOrderPhase: 0E0
BeginTime: 0E0
TransmitterFrequency: 1.27740E+08
MagneticField: 0E0
TypeOfNucleus: 0E0
NameOfPatient: 
DateOfExperiment: 
Spectrometer: Vespa-Simulation
AdditionalInfo: see 'readme' file for Vespa-Simulation output synopsis
 
  
Signal and FFT 
sig(real)	sig(imag)	fft(real)	fft(imag)
Signal 1 out of 1 in file
5.88055E+00	-4.49626E-03	3.16678E+00	-1.39426E+01
5.26153E+00	-2.49057E+00	3.16258E+00	-1.38292E+01
3.62026E+00	-4.41731E+00	3.15850E+00	-1.37178E+01
1.33637E+00	-5.39075E+00	3.15453E+00	-1.36082E+01
-1.07752E+00	-5.24400E+00	3.15068E+00	-1.35004E+01
-3.10085E+00	-4.06891E+00	3.14692E+00	-1.33943E+01
-4.32760E+00	-2.18364E+00	3.14328E+00	-1.32899E+01
-4.55551E+00	-4.65162E-02	3.13977E+00	-1.31872E+01
-3.82117E+00	1.85942E+00	3.13635E+00	-1.30862E+01
-2.37532E+00	3.14084E+00	3.13300E+00	-1.29867E+01
-6.08180E-01	3.57913E+00	3.12976E+00	-1.28887E+01
1.05288E+00	3.16669E+00	3.12663E+00	-1.27922E+01
2.24597E+00	2.08988E+00	3.12355E+00	-1.26973E+01
2.75221E+00	6.67222E-01	3.12054E+00	-1.26037E+01
2.53158E+00	-7.37586E-01	3.11763E+00	-1.25115E+01
1.71285E+00	-1.80383E+00	3.11480E+00	-1.24207E+01
5.45067E-01	-2.32181E+00	3.11201E+00	-1.23312E+01
-6.72498E-01	-2.22659E+00	3.10930E+00	-1.22430E+01
-1.66280E+00	-1.59445E+00	3.10668E+00	-1.21561E+01
-2.22809E+00	-6.07940E-01	3.10410E+00	-1.20704E+01
-2.28081E+00	4.96981E-01	3.10160E+00	-1.19859E+01
-1.84598E+00	1.48667E+00	3.09917E+00	-1.19025E+01
-1.03979E+00	2.17532E+00	3.09681E+00	-1.18204E+01
-3.41388E-02	2.45250E+00	3.09451E+00	-1.17393E+01
9.82273E-01	2.29100E+00	3.09226E+00	-1.16594E+01
1.83750E+00	1.73859E+00	3.09007E+00	-1.15806E+01
2.39993E+00	8.99603E-01	3.08793E+00	-1.15028E+01
2.59108E+00	-8.71072E-02	3.08583E+00	-1.14261E+01
2.38948E+00	-1.06972E+00	3.08377E+00	-1.13504E+01
1.82871E+00	-1.90242E+00	3.08174E+00	-1.12756E+01
9.91344E-01	-2.46195E+00	3.07975E+00	-1.12019E+01
-4.43761E-04	-2.66229E+00	3.07780E+00	-1.11291E+01
-9.98665E-01	-2.46735E+00	3.07585E+00	-1.10572E+01
-1.84823E+00	-1.89991E+00	3.07393E+00	-1.09862E+01
-2.41045E+00	-1.04360E+00	3.07206E+00	-1.09160E+01
-2.58796E+00	-3.50617E-02	3.07025E+00	-1.08468E+01
-2.34657E+00	9.55620E-01	3.06850E+00	-1.07783E+01
-1.72760E+00	1.75437E+00	3.06680E+00	-1.07107E+01
-8.45859E-01	2.21756E+00	3.06517E+00	-1.06439E+01
1.29151E-01	2.26416E+00	3.06358E+00	-1.05780E+01
1.00622E+00	1.89650E+00	3.06202E+00	-1.05129E+01
1.61356E+00	1.20362E+00	3.06047E+00	-1.04486E+01
1.83786E+00	3.44255E-01	3.05893E+00	-1.03850E+01
1.65162E+00	-4.87945E-01	3.05741E+00	-1.03222E+01
1.12077E+00	-1.10880E+00	3.05590E+00	-1.02601E+01
3.89617E-01	-1.38735E+00	3.05441E+00	-1.01987E+01
-3.53630E-01	-1.27710E+00	3.05296E+00	-1.01379E+01
-9.22906E-01	-8.26943E-01	3.05156E+00	-1.00779E+01
-1.17979E+00	-1.68160E-01	3.05022E+00	-1.00185E+01
-1.06713E+00	5.18957E-01	3.04892E+00	-9.95982E+00
-6.21986E-01	1.05074E+00	3.04764E+00	-9.90182E+00
3.50959E-02	1.28583E+00	3.04637E+00	-9.84448E+00
7.31765E-01	1.15972E+00	3.04510E+00	-9.78777E+00
1.28757E+00	6.99129E-01	3.04384E+00	-9.73167E+00
1.55876E+00	1.33947E-02	3.04261E+00	-9.67616E+00
1.47248E+00	-7.34262E-01	3.04140E+00	-9.62124E+00
1.04243E+00	-1.36789E+00	3.04024E+00	-9.56690E+00
3.62780E-01	-1.74115E+00	3.03912E+00	-9.51315E+00
-4.17104E-01	-1.77082E+00	3.03802E+00	-9.46000E+00
-1.12974E+00	-1.45328E+00	3.03693E+00	-9.40742E+00
-1.62869E+00	-8.61431E-01	3.03584E+00	-9.35539E+00
-1.82047E+00	-1.23788E-01	3.03475E+00	-9.30390E+00
-1.68175E+00	6.07549E-01	3.03367E+00	-9.25292E+00
-1.25935E+00	1.19203E+00	3.03262E+00	-9.20244E+00
-6.54449E-01	1.52991E+00	3.03161E+00	-9.15247E+00
3.81147E-03	1.57984E+00	3.03063E+00	-9.10303E+00
5.88366E-01	1.36194E+00	3.02967E+00	-9.05408E+00
1.00019E+00	9.46981E-01	3.02873E+00	-9.00565E+00
1.18565E+00	4.36253E-01	3.02779E+00	-8.95771E+00
1.14204E+00	-6.27426E-02	3.02684E+00	-8.91023E+00
9.11770E-01	-4.58887E-01	3.02591E+00	-8.86321E+00
5.68094E-01	-6.93460E-01	3.02500E+00	-8.81662E+00
1.96553E-01	-7.47735E-01	3.02413E+00	-8.77049E+00
-1.23664E-01	-6.41487E-01	3.02330E+00	-8.72482E+00
-3.34395E-01	-4.24125E-01	3.02248E+00	-8.67962E+00
-4.07407E-01	-1.61399E-01	3.02165E+00	-8.63487E+00
-3.46445E-01	7.93402E-02	3.02082E+00	-8.59056E+00
-1.83158E-01	2.42479E-01	3.01996E+00	-8.54666E+00
3.16207E-02	2.93831E-01	3.01908E+00	-8.50314E+00
2.39210E-01	2.25707E-01	3.01823E+00	-8.45997E+00
3.84975E-01	5.68686E-02	3.01742E+00	-8.41719E+00
4.28855E-01	-1.72241E-01	3.01667E+00	-8.37479E+00
3.52875E-01	-4.07851E-01	3.01597E+00	-8.33281E+00
1.64624E-01	-5.93553E-01	3.01528E+00	-8.29127E+00
-1.04041E-01	-6.81464E-01	3.01455E+00	-8.25012E+00
-4.02694E-01	-6.41914E-01	3.01382E+00	-8.20934E+00
-6.71848E-01	-4.70012E-01	3.01309E+00	-8.16890E+00
-8.54517E-01	-1.87614E-01	3.01236E+00	-8.12882E+00
-9.07789E-01	1.60002E-01	3.01164E+00	-8.08907E+00
-8.12007E-01	5.12107E-01	3.01095E+00	-8.04965E+00
-5.75722E-01	8.04162E-01	3.01032E+00	-8.01059E+00
-2.35036E-01	9.80607E-01	3.00968E+00	-7.97191E+00
1.52869E-01	1.00632E+00	3.00904E+00	-7.93356E+00
5.20532E-01	8.74084E-01	3.00840E+00	-7.89554E+00
8.03613E-01	6.06566E-01	3.00779E+00	-7.85784E+00
9.53838E-01	2.51927E-01	3.00720E+00	-7.82049E+00
9.48529E-01	-1.25725E-01	3.00659E+00	-7.78349E+00
7.94988E-01	-4.59396E-01	3.00596E+00	-7.74680E+00
5.28482E-01	-6.92681E-01	3.00530E+00	-7.71040E+00
2.04335E-01	-7.90925E-01	3.00463E+00	-7.67428E+00
-1.13870E-01	-7.47403E-01	3.00397E+00	-7.63841E+00
-3.67654E-01	-5.83635E-01	3.00335E+00	-7.60279E+00
-5.15400E-01	-3.43647E-01	3.00280E+00	-7.56745E+00
-5.40174E-01	-8.36433E-02	3.00231E+00	-7.53242E+00
-4.51874E-01	1.40365E-01	3.00187E+00	-7.49773E+00
-2.83704E-01	2.84452E-01	3.00142E+00	-7.46339E+00
-8.37166E-02	3.25549E-01	3.00093E+00	-7.42937E+00
9.63527E-02	2.65271E-01	3.00040E+00	-7.39562E+00
2.12621E-01	1.28378E-01	2.99983E+00	-7.36212E+00
2.38397E-01	-4.37321E-02	2.99926E+00	-7.32885E+00
1.69461E-01	-2.02877E-01	2.99871E+00	-7.29582E+00
2.43291E-02	-3.05006E-01	2.99818E+00	-7.26302E+00
-1.60375E-01	-3.19964E-01	2.99768E+00	-7.23049E+00
-3.38308E-01	-2.38016E-01	2.99720E+00	-7.19823E+00
-4.63750E-01	-7.18531E-02	2.99670E+00	-7.16623E+00
-5.01580E-01	1.46135E-01	2.99619E+00	-7.13447E+00
-4.35014E-01	3.70762E-01	2.99568E+00	-7.10292E+00
-2.69352E-01	5.53639E-01	2.99519E+00	-7.07158E+00
-3.11977E-02	6.53286E-01	2.99475E+00	-7.04044E+00
2.36811E-01	6.43941E-01	2.99440E+00	-7.00954E+00
4.84532E-01	5.21092E-01	2.99412E+00	-6.97894E+00
6.64486E-01	3.02619E-01	2.99385E+00	-6.94867E+00
7.41347E-01	2.54849E-02	2.99354E+00	-6.91873E+00
6.99126E-01	-2.61539E-01	2.99312E+00	-6.88907E+00
5.44382E-01	-5.07456E-01	2.99259E+00	-6.85960E+00
3.04836E-01	-6.69126E-01	2.99197E+00	-6.83029E+00
2.38641E-02	-7.19539E-01	2.99128E+00	-6.80106E+00
-2.48164E-01	-6.52942E-01	2.99063E+00	-6.77184E+00
-4.63791E-01	-4.85574E-01	2.99019E+00	-6.74272E+00
-5.87606E-01	-2.52055E-01	2.98996E+00	-6.71389E+00
-6.02869E-01	1.94427E-03	2.98978E+00	-6.68543E+00
-5.14102E-01	2.28765E-01	2.98957E+00	-6.65722E+00
-3.45585E-01	3.88244E-01	2.98941E+00	-6.62926E+00
-1.35883E-01	4.55320E-01	2.98925E+00	-6.60165E+00
7.02770E-02	4.24446E-01	2.98895E+00	-6.57435E+00
2.31106E-01	3.10030E-01	2.98848E+00	-6.54723E+00
3.16030E-01	1.42912E-01	2.98790E+00	-6.52017E+00
3.11548E-01	-3.62881E-02	2.98733E+00	-6.49314E+00
2.23615E-01	-1.85716E-01	2.98684E+00	-6.46624E+00
7.61283E-02	-2.70773E-01	2.98640E+00	-6.43949E+00
-9.40775E-02	-2.71293E-01	2.98603E+00	-6.41288E+00
-2.44839E-01	-1.85799E-01	2.98578E+00	-6.38646E+00
-3.37412E-01	-3.21022E-02	2.98562E+00	-6.36031E+00
-3.44729E-01	1.55926E-01	2.98545E+00	-6.33446E+00
-2.57600E-01	3.34909E-01	2.98522E+00	-6.30888E+00
-8.74701E-02	4.60804E-01	2.98487E+00	-6.28348E+00
1.34751E-01	4.98185E-01	2.98446E+00	-6.25818E+00
3.64100E-01	4.28489E-01	2.98406E+00	-6.23297E+00
5.50226E-01	2.55215E-01	2.98370E+00	-6.20792E+00
6.47876E-01	4.85130E-03	2.98334E+00	-6.18302E+00
6.27118E-01	-2.77049E-01	2.98302E+00	-6.15826E+00
4.81117E-01	-5.34238E-01	2.98274E+00	-6.13366E+00
2.29367E-01	-7.11329E-01	2.98249E+00	-6.10927E+00
-8.44190E-02	-7.65820E-01	2.98222E+00	-6.08508E+00
-4.00213E-01	-6.78544E-01	2.98192E+00	-6.06106E+00
-6.53785E-01	-4.59491E-01	2.98159E+00	-6.03716E+00
-7.90696E-01	-1.47472E-01	2.98126E+00	-6.01340E+00
-7.79011E-01	1.96848E-01	2.98095E+00	-5.98977E+00
-6.17645E-01	5.03404E-01	2.98067E+00	-5.96627E+00
-3.38063E-01	7.08083E-01	2.98042E+00	-5.94294E+00
1.71838E-03	7.67584E-01	2.98018E+00	-5.91977E+00
3.29304E-01	6.69832E-01	2.97993E+00	-5.89678E+00
5.74290E-01	4.37696E-01	2.97967E+00	-5.87394E+00
6.84559E-01	1.24368E-01	2.97940E+00	-5.85124E+00
6.38671E-01	-1.98580E-01	2.97912E+00	-5.82867E+00
4.51151E-01	-4.57801E-01	2.97885E+00	-5.80623E+00
1.69229E-01	-5.95441E-01	2.97858E+00	-5.78393E+00
-1.38517E-01	-5.82872E-01	2.97832E+00	-5.76175E+00
-3.98426E-01	-4.27232E-01	2.97809E+00	-5.73970E+00
-5.49495E-01	-1.69439E-01	2.97787E+00	-5.71782E+00
-5.57765E-01	1.26099E-01	2.97764E+00	-5.69609E+00
-4.23946E-01	3.87326E-01	2.97738E+00	-5.67449E+00
-1.82471E-01	5.51924E-01	2.97713E+00	-5.65300E+00
1.07581E-01	5.81899E-01	2.97689E+00	-5.63165E+00
3.77383E-01	4.71808E-01	2.97663E+00	-5.61043E+00
5.64725E-01	2.48824E-01	2.97637E+00	-5.58931E+00
6.28342E-01	-3.49575E-02	2.97613E+00	-5.56829E+00
5.56361E-01	-3.15756E-01	2.97593E+00	-5.54742E+00
3.67341E-01	-5.33250E-01	2.97572E+00	-5.52671E+00
1.04152E-01	-6.43844E-01	2.97548E+00	-5.50613E+00
-1.77215E-01	-6.29002E-01	2.97522E+00	-5.48565E+00
-4.20749E-01	-4.97166E-01	2.97495E+00	-5.46525E+00
-5.82275E-01	-2.79376E-01	2.97473E+00	-5.44494E+00
-6.37045E-01	-2.06560E-02	2.97455E+00	-5.42476E+00
-5.82463E-01	2.30546E-01	2.97437E+00	-5.40473E+00
-4.35695E-01	4.31981E-01	2.97419E+00	-5.38483E+00
-2.27792E-01	5.54370E-01	2.97401E+00	-5.36506E+00
3.69684E-03	5.84449E-01	2.97382E+00	-5.34542E+00
2.21689E-01	5.24565E-01	2.97359E+00	-5.32590E+00
3.94985E-01	3.89799E-01	2.97334E+00	-5.30645E+00
5.01274E-01	2.04089E-01	2.97310E+00	-5.28709E+00
