jMRUI Data Textfile
 
Filename: NAA.txt
 
PointsInDataset: 2048
DatasetsInFile: 1
SamplingInterval: 5.00000E-01
ZeroOrderPhase: 0E0
BeginTime: 0E0
TransmitterFrequency: 1.27740E+08
MagneticField: 0E0
TypeOfNucleus: 0E0
NameOfPatient: 
DateOfExperiment: 
Spectrometer: Vespa-Simulation
AdditionalInfo: see 'readme' file for Vespa-Simulation output synopsis
 
  
Signal and FFT 
sig(real)	sig(imag)	fft(real)	fft(imag)
Signal 1 out of 1 in file
6.52674E+00	-1.60802E-02	4.25686E+00	-9.99964E+00
3.64343E+00	-3.20873E+00	4.21055E+00	-9.84006E+00
-1.86531E+00	-3.86835E+00	4.16727E+00	-9.68649E+00
-4.41584E+00	-1.48893E+00	4.12689E+00	-9.53863E+00
-1.89134E+00	1.90584E+00	4.08920E+00	-9.39627E+00
2.51109E+00	3.27588E+00	4.05392E+00	-9.25916E+00
4.20686E+00	1.29382E+00	4.02073E+00	-9.12697E+00
2.08576E+00	-2.18983E+00	3.98953E+00	-8.99924E+00
-9.86628E-01	-3.79720E+00	3.96028E+00	-8.87582E+00
-1.87770E+00	-2.08643E+00	3.93280E+00	-8.75651E+00
-4.38688E-01	8.66240E-01	3.90689E+00	-8.64109E+00
1.05459E+00	1.76415E+00	3.88246E+00	-8.52927E+00
8.80751E-01	-1.60513E-01	3.85947E+00	-8.42088E+00
-4.24283E-01	-2.31893E+00	3.83784E+00	-8.31580E+00
-1.15263E+00	-1.94468E+00	3.81742E+00	-8.21390E+00
-5.05372E-01	4.90007E-01	3.79811E+00	-8.11499E+00
7.08917E-01	1.82317E+00	3.77983E+00	-8.01891E+00
1.11247E+00	1.41937E-01	3.76254E+00	-7.92554E+00
1.38045E-01	-2.69652E+00	3.74614E+00	-7.83476E+00
-1.49911E+00	-3.15299E+00	3.73059E+00	-7.74643E+00
-2.39290E+00	-2.83987E-01	3.71585E+00	-7.66045E+00
-1.58043E+00	2.94970E+00	3.70184E+00	-7.57676E+00
5.08791E-01	2.98807E+00	3.68845E+00	-7.49525E+00
2.10666E+00	-2.63619E-01	3.67561E+00	-7.41573E+00
1.52209E+00	-3.32108E+00	3.66335E+00	-7.33804E+00
-1.05407E+00	-2.99146E+00	3.65178E+00	-7.26214E+00
-3.29127E+00	2.51351E-01	3.64086E+00	-7.18811E+00
-2.82001E+00	3.02704E+00	3.63041E+00	-7.11590E+00
1.60368E-01	2.76286E+00	3.62037E+00	-7.04536E+00
2.74236E+00	1.48972E-01	3.61073E+00	-6.97640E+00
2.24004E+00	-2.00306E+00	3.60147E+00	-6.90894E+00
-8.20939E-01	-1.78255E+00	3.59256E+00	-6.84290E+00
-3.13021E+00	2.06327E-01	3.58403E+00	-6.77822E+00
-2.19806E+00	1.87929E+00	3.57585E+00	-6.71486E+00
8.69503E-01	1.81521E+00	3.56800E+00	-6.65278E+00
2.64832E+00	3.59152E-01	3.56046E+00	-6.59191E+00
1.29428E+00	-9.84399E-01	3.55325E+00	-6.53220E+00
-1.43698E+00	-9.91327E-01	3.54638E+00	-6.47363E+00
-2.33214E+00	2.57958E-01	3.53980E+00	-6.41622E+00
-4.38122E-01	1.49183E+00	3.53348E+00	-6.35991E+00
1.96947E+00	1.40726E+00	3.52734E+00	-6.30465E+00
2.14232E+00	-2.96434E-02	3.52144E+00	-6.25031E+00
-5.73995E-03	-1.39047E+00	3.51584E+00	-6.19694E+00
-1.95691E+00	-1.14394E+00	3.51045E+00	-6.14460E+00
-1.54953E+00	6.22124E-01	3.50520E+00	-6.09315E+00
6.77556E-01	2.04964E+00	3.50015E+00	-6.04255E+00
2.27090E+00	1.41656E+00	3.49529E+00	-5.99284E+00
1.61833E+00	-8.25212E-01	3.49055E+00	-5.94396E+00
-4.62990E-01	-2.31043E+00	3.48594E+00	-5.89582E+00
-1.80485E+00	-1.31371E+00	3.48151E+00	-5.84842E+00
-1.17609E+00	1.19378E+00	3.47722E+00	-5.80179E+00
6.47570E-01	2.47091E+00	3.47303E+00	-5.75584E+00
1.85170E+00	1.04553E+00	3.46900E+00	-5.71050E+00
1.36089E+00	-1.57010E+00	3.46521E+00	-5.66584E+00
-2.75727E-01	-2.52646E+00	3.46156E+00	-5.62194E+00
-1.50787E+00	-8.20095E-01	3.45794E+00	-5.57872E+00
-1.21522E+00	1.61497E+00	3.45437E+00	-5.53602E+00
2.93240E-01	2.12153E+00	3.45099E+00	-5.49385E+00
1.54998E+00	2.63821E-01	3.44779E+00	-5.45230E+00
1.29071E+00	-1.81468E+00	3.44470E+00	-5.41138E+00
-2.74925E-01	-1.88073E+00	3.44166E+00	-5.37105E+00
-1.57052E+00	-2.61099E-02	3.43869E+00	-5.33124E+00
-1.21524E+00	1.62215E+00	3.43578E+00	-5.29193E+00
4.62104E-01	1.34830E+00	3.43296E+00	-5.25312E+00
1.65596E+00	-3.78270E-01	3.43021E+00	-5.21478E+00
1.00432E+00	-1.61185E+00	3.42757E+00	-5.17691E+00
-8.37059E-01	-1.10012E+00	3.42502E+00	-5.13952E+00
-1.82161E+00	5.00128E-01	3.42252E+00	-5.10261E+00
-7.85525E-01	1.47724E+00	3.42005E+00	-5.06611E+00
1.16999E+00	8.75910E-01	3.41766E+00	-5.02999E+00
1.84687E+00	-6.24692E-01	3.41538E+00	-4.99429E+00
4.28100E-01	-1.49179E+00	3.41317E+00	-4.95902E+00
-1.55146E+00	-8.65093E-01	3.41099E+00	-4.92412E+00
-1.89293E+00	6.44492E-01	3.40894E+00	-4.88957E+00
-1.89999E-01	1.56218E+00	3.40701E+00	-4.85547E+00
1.71918E+00	9.62001E-01	3.40508E+00	-4.82185E+00
1.79064E+00	-6.18026E-01	3.40307E+00	-4.78854E+00
-8.40692E-03	-1.64194E+00	3.40114E+00	-4.75543E+00
-1.73641E+00	-1.05716E+00	3.39942E+00	-4.72269E+00
-1.62182E+00	6.08100E-01	3.39775E+00	-4.69044E+00
1.01675E-01	1.69539E+00	3.39597E+00	-4.65854E+00
1.58354E+00	1.08106E+00	3.39421E+00	-4.62682E+00
1.37716E+00	-6.19786E-01	3.39263E+00	-4.59540E+00
-1.40476E-01	-1.64592E+00	3.39107E+00	-4.56443E+00
-1.33337E+00	-9.43978E-01	3.38935E+00	-4.53373E+00
-1.06748E+00	6.93016E-01	3.38772E+00	-4.50307E+00
2.21949E-01	1.48589E+00	3.38641E+00	-4.47274E+00
1.13032E+00	6.19859E-01	3.38508E+00	-4.44299E+00
7.75481E-01	-8.76246E-01	3.38338E+00	-4.41344E+00
-3.68082E-01	-1.30941E+00	3.38197E+00	-4.38361E+00
-1.04548E+00	-2.29269E-01	3.38111E+00	-4.35454E+00
-5.42376E-01	1.08986E+00	3.37961E+00	-4.32606E+00
5.89435E-01	1.11760E+00	3.37806E+00	-4.29712E+00
1.11091E+00	-1.95467E-01	3.37716E+00	-4.26858E+00
3.96036E-01	-1.36721E+00	3.37603E+00	-4.24069E+00
-8.65704E-01	-1.04980E+00	3.37465E+00	-4.21283E+00
-1.32789E+00	4.67449E-01	3.37345E+00	-4.18497E+00
-3.97282E-01	1.56700E+00	3.37246E+00	-4.15749E+00
1.05920E+00	1.05020E+00	3.37134E+00	-4.13035E+00
1.53030E+00	-5.85765E-01	3.37015E+00	-4.10330E+00
4.36037E-01	-1.67638E+00	3.36908E+00	-4.07634E+00
-1.18739E+00	-1.11527E+00	3.36815E+00	-4.04969E+00
-1.69408E+00	5.35583E-01	3.36713E+00	-4.02333E+00
-5.33826E-01	1.64780E+00	3.36605E+00	-3.99706E+00
1.14375E+00	1.16443E+00	3.36506E+00	-3.97087E+00
1.66080E+00	-3.88951E-01	3.36425E+00	-3.94492E+00
5.39327E-01	-1.48135E+00	3.36342E+00	-3.91929E+00
-1.03686E+00	-1.10413E+00	3.36249E+00	-3.89383E+00
-1.48869E+00	2.80028E-01	3.36157E+00	-3.86842E+00
-4.63725E-01	1.26797E+00	3.36080E+00	-3.84317E+00
8.86951E-01	9.43195E-01	3.36007E+00	-3.81819E+00
1.18975E+00	-2.49657E-01	3.35931E+00	-3.79341E+00
2.64625E-01	-1.03639E+00	3.35856E+00	-3.76879E+00
-7.97479E-01	-6.60749E-01	3.35781E+00	-3.74437E+00
-8.76161E-01	3.67128E-01	3.35699E+00	-3.72013E+00
6.83759E-03	8.82760E-01	3.35610E+00	-3.69595E+00
8.01373E-01	3.51304E-01	3.35525E+00	-3.67181E+00
6.22189E-01	-5.73758E-01	3.35450E+00	-3.64777E+00
-2.99541E-01	-8.10006E-01	3.35382E+00	-3.62389E+00
-9.03163E-01	-6.92761E-02	3.35318E+00	-3.60015E+00
-4.77469E-01	8.14748E-01	3.35261E+00	-3.57653E+00
5.47590E-01	8.16552E-01	3.35213E+00	-3.55312E+00
1.04645E+00	-1.26693E-01	3.35162E+00	-3.52996E+00
4.14344E-01	-1.01597E+00	3.35104E+00	-3.50692E+00
-7.41609E-01	-8.63724E-01	3.35047E+00	-3.48398E+00
-1.20135E+00	2.26689E-01	3.34992E+00	-3.46117E+00
-4.23462E-01	1.14318E+00	3.34934E+00	-3.43850E+00
8.35827E-01	9.23181E-01	3.34875E+00	-3.41590E+00
1.27312E+00	-2.36859E-01	3.34818E+00	-3.39340E+00
4.04851E-01	-1.17273E+00	3.34764E+00	-3.37101E+00
-8.96227E-01	-9.37677E-01	3.34711E+00	-3.34875E+00
-1.29285E+00	2.38356E-01	3.34655E+00	-3.32658E+00
-3.80807E-01	1.18202E+00	3.34600E+00	-3.30446E+00
8.90193E-01	9.56468E-01	3.34552E+00	-3.28241E+00
1.21936E+00	-2.01773E-01	3.34510E+00	-3.26049E+00
3.08411E-01	-1.12465E+00	3.34470E+00	-3.23872E+00
-8.64181E-01	-8.89600E-01	3.34429E+00	-3.21705E+00
-1.10109E+00	2.49833E-01	3.34388E+00	-3.19551E+00
-2.19419E-01	1.12472E+00	3.34344E+00	-3.17405E+00
8.25070E-01	8.47887E-01	3.34301E+00	-3.15264E+00
9.80949E-01	-2.73179E-01	3.34261E+00	-3.13130E+00
1.64536E-01	-1.06196E+00	3.34225E+00	-3.11003E+00
-7.34271E-01	-7.09909E-01	3.34196E+00	-3.08890E+00
-8.18491E-01	3.76436E-01	3.34163E+00	-3.06792E+00
-7.21854E-02	1.02589E+00	3.34126E+00	-3.04700E+00
6.99720E-01	5.68487E-01	3.34088E+00	-3.02615E+00
7.31471E-01	-4.58043E-01	3.34052E+00	-3.00536E+00
4.75031E-02	-9.26144E-01	3.34013E+00	-2.98465E+00
-6.16032E-01	-3.64725E-01	3.33972E+00	-2.96396E+00
-5.84375E-01	5.51929E-01	3.33936E+00	-2.94327E+00
7.95693E-02	7.93717E-01	3.33910E+00	-2.92266E+00
6.58082E-01	1.27706E-01	3.33883E+00	-2.90217E+00
5.28274E-01	-6.59953E-01	3.33860E+00	-2.88173E+00
-1.78156E-01	-6.82680E-01	3.33841E+00	-2.86143E+00
-6.93397E-01	5.71835E-02	3.33812E+00	-2.84123E+00
-4.25042E-01	7.08475E-01	3.33779E+00	-2.82098E+00
3.73327E-01	5.44372E-01	3.33760E+00	-2.80074E+00
8.24669E-01	-2.47606E-01	3.33745E+00	-2.78063E+00
3.73136E-01	-8.04048E-01	3.33734E+00	-2.76063E+00
-5.53606E-01	-5.31969E-01	3.33718E+00	-2.74079E+00
-9.46966E-01	2.81969E-01	3.33691E+00	-2.72099E+00
-3.17891E-01	8.02939E-01	3.33659E+00	-2.70115E+00
7.08175E-01	5.10535E-01	3.33635E+00	-2.68128E+00
1.02169E+00	-3.02511E-01	3.33617E+00	-2.66153E+00
2.43691E-01	-8.45124E-01	3.33591E+00	-2.64184E+00
-8.23932E-01	-5.96110E-01	3.33567E+00	-2.62208E+00
-1.04956E+00	2.11904E-01	3.33554E+00	-2.60239E+00
-2.01118E-01	8.17652E-01	3.33537E+00	-2.58284E+00
8.10525E-01	6.43000E-01	3.33514E+00	-2.56323E+00
9.33942E-01	-1.54346E-01	3.33500E+00	-2.54363E+00
9.77744E-02	-8.08073E-01	3.33490E+00	-2.52410E+00
-7.72208E-01	-6.70132E-01	3.33481E+00	-2.50464E+00
-7.94286E-01	1.33393E-01	3.33472E+00	-2.48522E+00
-3.98172E-02	7.93224E-01	3.33467E+00	-2.46583E+00
6.41271E-01	6.29574E-01	3.33462E+00	-2.44655E+00
5.80808E-01	-1.80708E-01	3.33449E+00	-2.42730E+00
-5.39258E-02	-7.64845E-01	3.33438E+00	-2.40802E+00
-5.45194E-01	-4.90674E-01	3.33427E+00	-2.38881E+00
-4.21423E-01	3.25742E-01	3.33413E+00	-2.36961E+00
1.12664E-01	7.58995E-01	3.33398E+00	-2.35039E+00
4.74379E-01	3.18120E-01	3.33386E+00	-2.33116E+00
3.18175E-01	-4.84909E-01	3.33375E+00	-2.31195E+00
-1.62644E-01	-7.16539E-01	3.33366E+00	-2.29273E+00
-4.70271E-01	-1.00930E-01	3.33359E+00	-2.27352E+00
-2.90342E-01	6.53963E-01	3.33357E+00	-2.25432E+00
2.13683E-01	6.71749E-01	3.33358E+00	-2.23515E+00
5.44533E-01	-8.10500E-02	3.33360E+00	-2.21599E+00
3.37453E-01	-7.59435E-01	3.33368E+00	-2.19683E+00
-2.54160E-01	-6.07468E-01	3.33381E+00	-2.17775E+00
-6.48183E-01	1.97938E-01	3.33393E+00	-2.15876E+00
-3.93372E-01	7.73543E-01	3.33400E+00	-2.13979E+00
