jMRUI Data Textfile
 
Filename: PE.txt
 
PointsInDataset: 2048
DatasetsInFile: 1
SamplingInterval: 5.00000E-01
ZeroOrderPhase: 0E0
BeginTime: 0E0
TransmitterFrequency: 1.27740E+08
MagneticField: 0E0
TypeOfNucleus: 0E0
NameOfPatient: 
DateOfExperiment: 
Spectrometer: Vespa-Simulation
AdditionalInfo: see 'readme' file for Vespa-Simulation output synopsis
 
  
Signal and FFT 
sig(real)	sig(imag)	fft(real)	fft(imag)
Signal 1 out of 1 in file
3.62768E+00	1.36023E-03	2.05863E+00	-9.19991E+00
3.21756E+00	-1.51877E+00	2.05369E+00	-9.11724E+00
2.16489E+00	-2.63149E+00	2.04892E+00	-9.03611E+00
7.78483E-01	-3.08537E+00	2.04430E+00	-8.95649E+00
-5.56771E-01	-2.83469E+00	2.03982E+00	-8.87832E+00
-1.50420E+00	-2.04259E+00	2.03547E+00	-8.80155E+00
-1.87844E+00	-1.01585E+00	2.03123E+00	-8.72615E+00
-1.69354E+00	-9.56996E-02	2.02712E+00	-8.65206E+00
-1.14224E+00	4.57069E-01	2.02314E+00	-8.57925E+00
-5.16187E-01	5.43459E-01	2.01929E+00	-8.50770E+00
-9.66343E-02	2.47980E-01	2.01555E+00	-8.43738E+00
-5.43822E-02	-2.04414E-01	2.01191E+00	-8.36825E+00
-3.92978E-01	-5.38763E-01	2.00837E+00	-8.30028E+00
-9.53438E-01	-5.34918E-01	2.00493E+00	-8.23343E+00
-1.47688E+00	-1.09764E-01	2.00159E+00	-8.16767E+00
-1.70162E+00	6.51211E-01	1.99833E+00	-8.10297E+00
-1.46010E+00	1.52286E+00	1.99518E+00	-8.03932E+00
-7.41834E-01	2.21841E+00	1.99210E+00	-7.97669E+00
2.98696E-01	2.48887E+00	1.98910E+00	-7.91504E+00
1.39112E+00	2.20902E+00	1.98619E+00	-7.85435E+00
2.23721E+00	1.42097E+00	1.98336E+00	-7.79461E+00
2.60762E+00	3.21238E-01	1.98060E+00	-7.73579E+00
2.41423E+00	-8.03051E-01	1.97790E+00	-7.67786E+00
1.73465E+00	-1.66625E+00	1.97527E+00	-7.62080E+00
7.82026E-01	-2.07301E+00	1.97271E+00	-7.56459E+00
-1.67969E-01	-1.97449E+00	1.97022E+00	-7.50921E+00
-8.67192E-01	-1.47435E+00	1.96779E+00	-7.45465E+00
-1.17141E+00	-7.84830E-01	1.96542E+00	-7.40088E+00
-1.07820E+00	-1.49500E-01	1.96310E+00	-7.34790E+00
-7.15416E-01	2.39622E-01	1.96083E+00	-7.29566E+00
-2.86587E-01	3.02589E-01	1.95863E+00	-7.24416E+00
6.28540E-03	9.00671E-02	1.95648E+00	-7.19339E+00
3.49502E-02	-2.44303E-01	1.95438E+00	-7.14334E+00
-2.12351E-01	-5.06226E-01	1.95231E+00	-7.09398E+00
-6.31220E-01	-5.34713E-01	1.95028E+00	-7.04527E+00
-1.04265E+00	-2.61586E-01	1.94832E+00	-6.99722E+00
-1.26000E+00	2.63678E-01	1.94642E+00	-6.94983E+00
-1.15726E+00	8.91255E-01	1.94456E+00	-6.90308E+00
-7.14957E-01	1.42317E+00	1.94273E+00	-6.85698E+00
-2.84302E-02	1.68166E+00	1.94091E+00	-6.81147E+00
7.23169E-01	1.56959E+00	1.93914E+00	-6.76653E+00
1.33599E+00	1.10276E+00	1.93741E+00	-6.72217E+00
1.64738E+00	4.03920E-01	1.93574E+00	-6.67837E+00
1.58678E+00	-3.38421E-01	1.93412E+00	-6.63515E+00
1.19470E+00	-9.31193E-01	1.93253E+00	-6.59250E+00
6.04904E-01	-1.23725E+00	1.93095E+00	-6.55038E+00
-2.76189E-03	-1.21465E+00	1.92938E+00	-6.50878E+00
-4.62065E-01	-9.23079E-01	1.92786E+00	-6.46767E+00
-6.71958E-01	-4.96690E-01	1.92638E+00	-6.42707E+00
-6.23420E-01	-9.42681E-02	1.92494E+00	-6.38697E+00
-3.94010E-01	1.55450E-01	1.92353E+00	-6.34736E+00
-1.13641E-01	1.94506E-01	1.92215E+00	-6.30823E+00
8.50919E-02	4.97056E-02	1.92080E+00	-6.26958E+00
1.14286E-01	-1.83554E-01	1.91946E+00	-6.23138E+00
-4.02592E-02	-3.80349E-01	1.91814E+00	-6.19362E+00
-3.17446E-01	-4.33572E-01	1.91686E+00	-6.15630E+00
-6.05924E-01	-2.92821E-01	1.91561E+00	-6.11942E+00
-7.85819E-01	1.82211E-02	1.91437E+00	-6.08297E+00
-7.72121E-01	4.11047E-01	1.91316E+00	-6.04692E+00
-5.44589E-01	7.63873E-01	1.91198E+00	-6.01129E+00
-1.54556E-01	9.63798E-01	1.91082E+00	-5.97607E+00
2.92949E-01	9.44845E-01	1.90968E+00	-5.94124E+00
6.74518E-01	7.09001E-01	1.90856E+00	-5.90680E+00
8.88771E-01	3.23927E-01	1.90746E+00	-5.87274E+00
8.87766E-01	-1.00858E-01	1.90636E+00	-5.83906E+00
6.89640E-01	-4.50451E-01	1.90529E+00	-5.80573E+00
3.68961E-01	-6.40958E-01	1.90425E+00	-5.77274E+00
2.94118E-02	-6.43492E-01	1.90325E+00	-5.74013E+00
-2.31279E-01	-4.88909E-01	1.90226E+00	-5.70788E+00
-3.51954E-01	-2.52609E-01	1.90128E+00	-5.67596E+00
-3.24352E-01	-2.58166E-02	1.90033E+00	-5.64438E+00
-1.90534E-01	1.16056E-01	1.89940E+00	-5.61316E+00
-2.37507E-02	1.37299E-01	1.89846E+00	-5.58226E+00
9.98182E-02	5.04288E-02	1.89754E+00	-5.55167E+00
1.28089E-01	-9.24723E-02	1.89663E+00	-5.52140E+00
4.98419E-02	-2.21422E-01	1.89574E+00	-5.49143E+00
-1.03894E-01	-2.74970E-01	1.89486E+00	-5.46175E+00
-2.73321E-01	-2.21972E-01	1.89403E+00	-5.43237E+00
-3.92556E-01	-7.15264E-02	1.89322E+00	-5.40332E+00
-4.13283E-01	1.31635E-01	1.89237E+00	-5.37460E+00
-3.21114E-01	3.23841E-01	1.89148E+00	-5.34609E+00
-1.39470E-01	4.44899E-01	1.89067E+00	-5.31778E+00
7.95087E-02	4.58124E-01	1.88997E+00	-5.28978E+00
2.73273E-01	3.61519E-01	1.88931E+00	-5.26214E+00
3.89642E-01	1.86715E-01	1.88861E+00	-5.23486E+00
4.02791E-01	-1.30636E-02	1.88782E+00	-5.20784E+00
3.19637E-01	-1.81328E-01	1.88700E+00	-5.18100E+00
1.75035E-01	-2.76351E-01	1.88620E+00	-5.15437E+00
1.82543E-02	-2.82960E-01	1.88546E+00	-5.12793E+00
-1.03986E-01	-2.14610E-01	1.88482E+00	-5.10177E+00
-1.62121E-01	-1.05998E-01	1.88418E+00	-5.07596E+00
-1.51251E-01	5.95085E-04	1.88345E+00	-5.05038E+00
-8.97454E-02	7.00552E-02	1.88274E+00	-5.02496E+00
-1.02396E-02	8.51891E-02	1.88208E+00	-4.99975E+00
5.31595E-02	5.03363E-02	1.88148E+00	-4.97480E+00
7.67926E-02	-1.27414E-02	1.88089E+00	-4.95011E+00
5.44750E-02	-7.44646E-02	1.88029E+00	-4.92568E+00
-2.22410E-03	-1.08709E-01	1.87968E+00	-4.90148E+00
-6.98832E-02	-1.01699E-01	1.87904E+00	-4.87748E+00
-1.22641E-01	-5.56863E-02	1.87840E+00	-4.85367E+00
-1.41471E-01	1.32789E-02	1.87777E+00	-4.83004E+00
-1.20177E-01	8.21365E-02	1.87718E+00	-4.80661E+00
-6.63606E-02	1.29308E-01	1.87661E+00	-4.78340E+00
2.43796E-03	1.41805E-01	1.87606E+00	-4.76039E+00
6.55151E-02	1.18621E-01	1.87552E+00	-4.73760E+00
1.06075E-01	6.97310E-02	1.87498E+00	-4.71501E+00
1.16118E-01	1.15277E-02	1.87444E+00	-4.69261E+00
9.77236E-02	-3.92391E-02	1.87391E+00	-4.67040E+00
6.08432E-02	-7.07698E-02	1.87338E+00	-4.64838E+00
1.88193E-02	-7.90275E-02	1.87287E+00	-4.62655E+00
-1.64404E-02	-6.74864E-02	1.87235E+00	-4.60489E+00
-3.78704E-02	-4.44047E-02	1.87185E+00	-4.58342E+00
-4.43153E-02	-1.90511E-02	1.87136E+00	-4.56212E+00
-3.92945E-02	1.56095E-03	1.87088E+00	-4.54101E+00
-2.84030E-02	1.43185E-02	1.87039E+00	-4.52008E+00
-1.66436E-02	1.97351E-02	1.86991E+00	-4.49931E+00
-6.78813E-03	2.03188E-02	1.86943E+00	-4.47870E+00
7.69600E-04	1.85823E-02	1.86897E+00	-4.45826E+00
6.92821E-03	1.57011E-02	1.86852E+00	-4.43798E+00
1.23709E-02	1.13669E-02	1.86808E+00	-4.41787E+00
1.65302E-02	4.72156E-03	1.86764E+00	-4.39793E+00
1.76052E-02	-4.28398E-03	1.86720E+00	-4.37815E+00
1.36162E-02	-1.39538E-02	1.86678E+00	-4.35852E+00
3.92573E-03	-2.09629E-02	1.86635E+00	-4.33905E+00
-9.63141E-03	-2.16043E-02	1.86592E+00	-4.31972E+00
-2.27297E-02	-1.36553E-02	1.86551E+00	-4.30053E+00
-2.98582E-02	2.02271E-03	1.86512E+00	-4.28151E+00
-2.65495E-02	2.10159E-02	1.86473E+00	-4.26266E+00
-1.16116E-02	3.64489E-02	1.86433E+00	-4.24395E+00
1.16575E-02	4.13953E-02	1.86391E+00	-4.22538E+00
3.59870E-02	3.17392E-02	1.86349E+00	-4.20692E+00
5.23749E-02	8.32393E-03	1.86310E+00	-4.18858E+00
5.33886E-02	-2.26072E-02	1.86275E+00	-4.17039E+00
3.62670E-02	-5.10724E-02	1.86241E+00	-4.15238E+00
4.56978E-03	-6.66820E-02	1.86203E+00	-4.13452E+00
-3.24331E-02	-6.24958E-02	1.86163E+00	-4.11678E+00
-6.26109E-02	-3.79568E-02	1.86123E+00	-4.09912E+00
-7.51617E-02	3.07790E-04	1.86087E+00	-4.08159E+00
-6.46599E-02	4.03183E-02	1.86053E+00	-4.06419E+00
-3.34141E-02	6.86569E-02	1.86020E+00	-4.04694E+00
8.84082E-03	7.52214E-02	1.85987E+00	-4.02983E+00
4.79958E-02	5.70514E-02	1.85952E+00	-4.01285E+00
7.03881E-02	1.97819E-02	1.85916E+00	-3.99597E+00
6.77201E-02	-2.39412E-02	1.85882E+00	-3.97920E+00
4.02888E-02	-5.86580E-02	1.85850E+00	-3.96255E+00
-2.74663E-03	-7.15142E-02	1.85817E+00	-3.94603E+00
-4.62450E-02	-5.69536E-02	1.85785E+00	-3.92961E+00
-7.42479E-02	-1.90214E-02	1.85754E+00	-3.91331E+00
-7.56287E-02	2.96899E-02	1.85724E+00	-3.89714E+00
-4.82303E-02	7.21708E-02	1.85693E+00	-3.88108E+00
3.45944E-05	9.28336E-02	1.85662E+00	-3.86513E+00
5.35986E-02	8.30360E-02	1.85632E+00	-3.84929E+00
9.44386E-02	4.43123E-02	1.85602E+00	-3.83355E+00
1.08218E-01	-1.18568E-02	1.85573E+00	-3.81791E+00
8.93339E-02	-6.77561E-02	1.85545E+00	-3.80239E+00
4.29945E-02	-1.05379E-01	1.85517E+00	-3.78698E+00
-1.64006E-02	-1.12560E-01	1.85490E+00	-3.77167E+00
-7.00790E-02	-8.71550E-02	1.85463E+00	-3.75648E+00
-1.01254E-01	-3.78009E-02	1.85435E+00	-3.74139E+00
-1.00824E-01	1.90396E-02	1.85408E+00	-3.72639E+00
-7.04221E-02	6.47595E-02	1.85381E+00	-3.71150E+00
-2.17481E-02	8.49667E-02	1.85354E+00	-3.69671E+00
2.75794E-02	7.44141E-02	1.85325E+00	-3.68201E+00
6.02141E-02	3.86986E-02	1.85298E+00	-3.66739E+00
6.51452E-02	-7.82322E-03	1.85272E+00	-3.65286E+00
4.15146E-02	-4.71745E-02	1.85248E+00	-3.63844E+00
-1.13588E-03	-6.41452E-02	1.85223E+00	-3.62413E+00
-4.62863E-02	-5.16951E-02	1.85197E+00	-3.60991E+00
-7.62723E-02	-1.34719E-02	1.85171E+00	-3.59577E+00
-7.85533E-02	3.74012E-02	1.85145E+00	-3.58172E+00
-5.01834E-02	8.28606E-02	1.85118E+00	-3.56776E+00
1.04820E-03	1.06162E-01	1.85093E+00	-3.55386E+00
5.91901E-02	9.76932E-02	1.85069E+00	-3.54005E+00
1.05507E-01	5.83308E-02	1.85047E+00	-3.52634E+00
1.24813E-01	-8.11962E-04	1.85025E+00	-3.51273E+00
1.10528E-01	-6.20750E-02	1.85002E+00	-3.49922E+00
6.68190E-02	-1.07154E-01	1.84975E+00	-3.48578E+00
7.08255E-03	-1.23121E-01	1.84950E+00	-3.47237E+00
-5.06340E-02	-1.06540E-01	1.84930E+00	-3.45905E+00
-8.96593E-02	-6.43080E-02	1.84912E+00	-3.44584E+00
-1.00098E-01	-1.10289E-02	1.84893E+00	-3.43274E+00
-8.17906E-02	3.61137E-02	1.84873E+00	-3.41974E+00
-4.38974E-02	6.31864E-02	1.84848E+00	-3.40682E+00
-1.35728E-03	6.39744E-02	1.84821E+00	-3.39393E+00
3.04769E-02	4.17042E-02	1.84797E+00	-3.38106E+00
4.11342E-02	7.44896E-03	1.84781E+00	-3.36827E+00
2.84397E-02	-2.40943E-02	1.84768E+00	-3.35563E+00
-1.05983E-03	-3.99256E-02	1.84749E+00	-3.34310E+00
-3.47067E-02	-3.32973E-02	1.84727E+00	-3.33064E+00
-5.83966E-02	-5.95183E-03	1.84705E+00	-3.31822E+00
