jMRUI Data Textfile
 
Filename: Tau.txt
 
PointsInDataset: 2048
DatasetsInFile: 1
SamplingInterval: 5.00000E-01
ZeroOrderPhase: 0E0
BeginTime: 0E0
TransmitterFrequency: 1.27740E+08
MagneticField: 0E0
TypeOfNucleus: 0E0
NameOfPatient: 
DateOfExperiment: 
Spectrometer: Vespa-Simulation
AdditionalInfo: see 'readme' file for Vespa-Simulation output synopsis
 
  
Signal and FFT 
sig(real)	sig(imag)	fft(real)	fft(imag)
Signal 1 out of 1 in file
3.98534E+00	-4.29651E-07	2.08287E+00	-7.11296E+00
3.37638E+00	-2.06305E+00	2.08187E+00	-7.07100E+00
1.79022E+00	-3.49118E+00	2.08090E+00	-7.02948E+00
-2.89826E-01	-3.87456E+00	2.07995E+00	-6.98842E+00
-2.24265E+00	-3.12053E+00	2.07902E+00	-6.94780E+00
-3.49743E+00	-1.47523E+00	2.07813E+00	-6.90762E+00
-3.70294E+00	5.57093E-01	2.07725E+00	-6.86789E+00
-2.82691E+00	2.37053E+00	2.07639E+00	-6.82860E+00
-1.15737E+00	3.44059E+00	2.07552E+00	-6.78975E+00
7.92303E-01	3.47791E+00	2.07463E+00	-6.75129E+00
2.44297E+00	2.50694E+00	2.07374E+00	-6.71321E+00
3.32389E+00	8.48141E-01	2.07287E+00	-6.67549E+00
3.20853E+00	-9.87781E-01	2.07204E+00	-6.63815E+00
2.17235E+00	-2.45864E+00	2.07125E+00	-6.60122E+00
5.57980E-01	-3.15272E+00	2.07046E+00	-6.56467E+00
-1.13785E+00	-2.90504E+00	2.06967E+00	-6.52850E+00
-2.41850E+00	-1.83471E+00	2.06890E+00	-6.49270E+00
-2.93428E+00	-2.95906E-01	2.06812E+00	-6.45724E+00
-2.57832E+00	1.23904E+00	2.06735E+00	-6.42213E+00
-1.50495E+00	2.32569E+00	2.06661E+00	-6.38736E+00
-6.92111E-02	2.67716E+00	2.06588E+00	-6.35294E+00
1.29010E+00	2.23947E+00	2.06516E+00	-6.31885E+00
2.18528E+00	1.19288E+00	2.06446E+00	-6.28510E+00
2.39092E+00	-1.16813E-01	2.06377E+00	-6.25167E+00
1.89930E+00	-1.29188E+00	2.06310E+00	-6.21857E+00
9.06943E-01	-2.00390E+00	2.06244E+00	-6.18580E+00
-2.58863E-01	-2.08567E+00	2.06178E+00	-6.15335E+00
-1.24722E+00	-1.56791E+00	2.06111E+00	-6.12120E+00
-1.78943E+00	-6.53880E-01	2.06045E+00	-6.08933E+00
-1.77156E+00	3.55687E-01	2.05981E+00	-6.05776E+00
-1.25432E+00	1.16065E+00	2.05920E+00	-6.02647E+00
-4.38615E-01	1.55052E+00	2.05862E+00	-5.99550E+00
4.08039E-01	1.45838E+00	2.05804E+00	-5.96483E+00
1.03814E+00	9.66161E-01	2.05746E+00	-5.93445E+00
1.29622E+00	2.64118E-01	2.05686E+00	-5.90435E+00
1.15518E+00	-4.18369E-01	2.05627E+00	-5.87452E+00
7.09477E-01	-8.86660E-01	2.05568E+00	-5.84495E+00
1.31543E-01	-1.03556E+00	2.05510E+00	-5.81564E+00
-3.90721E-01	-8.69950E-01	2.05454E+00	-5.78657E+00
-7.13877E-01	-4.88569E-01	2.05401E+00	-5.75776E+00
-7.77129E-01	-4.02059E-02	2.05349E+00	-5.72923E+00
-6.09326E-01	3.30352E-01	2.05298E+00	-5.70098E+00
-3.06012E-01	5.27695E-01	2.05245E+00	-5.67300E+00
1.21557E-02	5.28790E-01	2.05188E+00	-5.64524E+00
2.43380E-01	3.78485E-01	2.05131E+00	-5.61768E+00
3.35952E-01	1.62630E-01	2.05079E+00	-5.59031E+00
2.97371E-01	-2.91302E-02	2.05032E+00	-5.56320E+00
1.81000E-01	-1.36495E-01	2.04988E+00	-5.53635E+00
5.76801E-02	-1.46036E-01	2.04943E+00	-5.50978E+00
-1.53993E-02	-8.84699E-02	2.04895E+00	-5.48344E+00
-1.65681E-02	-1.88545E-02	2.04845E+00	-5.45730E+00
3.53748E-02	1.10061E-02	2.04795E+00	-5.43136E+00
9.36792E-02	-2.36135E-02	2.04747E+00	-5.40561E+00
1.07491E-01	-1.09667E-01	2.04703E+00	-5.38008E+00
4.67608E-02	-2.02558E-01	2.04660E+00	-5.35478E+00
-8.20479E-02	-2.46261E-01	2.04618E+00	-5.32970E+00
-2.35900E-01	-1.98976E-01	2.04575E+00	-5.30484E+00
-3.50904E-01	-5.38277E-02	2.04531E+00	-5.28018E+00
-3.67870E-01	1.53918E-01	2.04487E+00	-5.25572E+00
-2.57760E-01	3.56489E-01	2.04443E+00	-5.23146E+00
-3.70670E-02	4.77017E-01	2.04398E+00	-5.20739E+00
2.33407E-01	4.58421E-01	2.04352E+00	-5.18347E+00
4.66653E-01	2.86989E-01	2.04311E+00	-5.15971E+00
5.78746E-01	1.66490E-03	2.04274E+00	-5.13616E+00
5.19028E-01	-3.15098E-01	2.04240E+00	-5.11283E+00
2.90551E-01	-5.62605E-01	2.04205E+00	-5.08974E+00
-4.71090E-02	-6.55149E-01	2.04165E+00	-5.06683E+00
-3.94185E-01	-5.51827E-01	2.04122E+00	-5.04408E+00
-6.41618E-01	-2.72805E-01	2.04079E+00	-5.02147E+00
-7.06408E-01	1.04193E-01	2.04038E+00	-4.99899E+00
-5.59752E-01	4.66647E-01	2.04003E+00	-4.97667E+00
-2.38392E-01	7.02009E-01	2.03972E+00	-4.95455E+00
1.64916E-01	7.33698E-01	2.03943E+00	-4.93266E+00
5.29322E-01	5.46324E-01	2.03909E+00	-4.91098E+00
7.43141E-01	1.91901E-01	2.03871E+00	-4.88946E+00
7.39010E-01	-2.25194E-01	2.03828E+00	-4.86807E+00
5.15418E-01	-5.79959E-01	2.03786E+00	-4.84678E+00
1.37720E-01	-7.65300E-01	2.03747E+00	-4.82560E+00
-2.81566E-01	-7.24987E-01	2.03715E+00	-4.80456E+00
-6.17223E-01	-4.71028E-01	2.03688E+00	-4.78370E+00
-7.69577E-01	-7.98526E-02	2.03664E+00	-4.76306E+00
-6.94691E-01	3.31388E-01	2.03638E+00	-4.74263E+00
-4.17133E-01	6.40587E-01	2.03606E+00	-4.72237E+00
-2.17775E-02	7.57710E-01	2.03568E+00	-4.70222E+00
3.72776E-01	6.51427E-01	2.03530E+00	-4.68216E+00
6.50328E-01	3.57425E-01	2.03496E+00	-4.66219E+00
7.31921E-01	-3.36575E-02	2.03468E+00	-4.64235E+00
5.98551E-01	-4.04606E-01	2.03449E+00	-4.62270E+00
2.95231E-01	-6.47349E-01	2.03429E+00	-4.60331E+00
-8.42022E-02	-6.94740E-01	2.03396E+00	-4.58411E+00
-4.26470E-01	-5.39290E-01	2.03355E+00	-4.56494E+00
-6.33056E-01	-2.33399E-01	2.03318E+00	-4.54581E+00
-6.48838E-01	1.28334E-01	2.03290E+00	-4.52679E+00
-4.76655E-01	4.38530E-01	2.03268E+00	-4.50795E+00
-1.74235E-01	6.09211E-01	2.03242E+00	-4.48932E+00
1.65143E-01	5.96872E-01	2.03209E+00	-4.47080E+00
4.41497E-01	4.13259E-01	2.03178E+00	-4.45230E+00
5.77785E-01	1.19458E-01	2.03157E+00	-4.43391E+00
5.41353E-01	-1.94295E-01	2.03143E+00	-4.41573E+00
3.51294E-01	-4.36450E-01	2.03128E+00	-4.39777E+00
7.02746E-02	-5.40807E-01	2.03105E+00	-4.38000E+00
-2.15957E-01	-4.84532E-01	2.03072E+00	-4.36232E+00
-4.24722E-01	-2.92477E-01	2.03033E+00	-4.34468E+00
-5.00267E-01	-2.73220E-02	2.02997E+00	-4.32705E+00
-4.28348E-01	2.30645E-01	2.02970E+00	-4.30950E+00
-2.38046E-01	4.07778E-01	2.02953E+00	-4.29212E+00
9.20622E-03	4.57987E-01	2.02932E+00	-4.27495E+00
2.39199E-01	3.74342E-01	2.02904E+00	-4.25787E+00
3.87107E-01	1.88768E-01	2.02877E+00	-4.24082E+00
4.15555E-01	-3.94956E-02	2.02857E+00	-4.22387E+00
3.23662E-01	-2.42621E-01	2.02844E+00	-4.20708E+00
1.45026E-01	-3.64104E-01	2.02831E+00	-4.19051E+00
-6.40322E-02	-3.74268E-01	2.02806E+00	-4.17409E+00
-2.41987E-01	-2.77068E-01	2.02772E+00	-4.15769E+00
-3.40025E-01	-1.06820E-01	2.02743E+00	-4.14130E+00
-3.35111E-01	8.34671E-02	2.02719E+00	-4.12500E+00
-2.34959E-01	2.38354E-01	2.02702E+00	-4.10881E+00
-7.38791E-02	3.15916E-01	2.02687E+00	-4.09279E+00
9.85924E-02	2.98746E-01	2.02669E+00	-4.07693E+00
2.32702E-01	1.97413E-01	2.02645E+00	-4.06116E+00
2.92576E-01	4.57365E-02	2.02618E+00	-4.04546E+00
2.65538E-01	-1.10216E-01	2.02590E+00	-4.02981E+00
1.64279E-01	-2.25846E-01	2.02567E+00	-4.01420E+00
2.17948E-02	-2.70559E-01	2.02550E+00	-3.99870E+00
-1.19103E-01	-2.35585E-01	2.02536E+00	-3.98334E+00
-2.18445E-01	-1.35200E-01	2.02521E+00	-3.96811E+00
-2.50176E-01	-1.43120E-03	2.02503E+00	-3.95300E+00
-2.08771E-01	1.25932E-01	2.02482E+00	-3.93797E+00
-1.09703E-01	2.10963E-01	2.02461E+00	-3.92302E+00
1.59802E-02	2.31526E-01	2.02440E+00	-3.90815E+00
1.31231E-01	1.84832E-01	2.02419E+00	-3.89337E+00
2.03666E-01	8.72861E-02	2.02398E+00	-3.87865E+00
2.14531E-01	-3.10199E-02	2.02378E+00	-3.86402E+00
1.63380E-01	-1.35419E-01	2.02360E+00	-3.84948E+00
6.74091E-02	-1.96667E-01	2.02342E+00	-3.83503E+00
-4.41390E-02	-1.98986E-01	2.02326E+00	-3.82066E+00
-1.38738E-01	-1.44002E-01	2.02310E+00	-3.80641E+00
-1.89924E-01	-4.96255E-02	2.02291E+00	-3.79225E+00
-1.84609E-01	5.56766E-02	2.02269E+00	-3.77817E+00
-1.26292E-01	1.41296E-01	2.02246E+00	-3.76412E+00
-3.35256E-02	1.83310E-01	2.02227E+00	-3.75011E+00
6.58838E-02	1.71079E-01	2.02215E+00	-3.73619E+00
1.43118E-01	1.09864E-01	2.02205E+00	-3.72242E+00
1.76628E-01	1.88296E-02	2.02190E+00	-3.70877E+00
1.58098E-01	-7.48614E-02	2.02171E+00	-3.69519E+00
9.44372E-02	-1.44120E-01	2.02150E+00	-3.68165E+00
5.35903E-03	-1.69667E-01	2.02131E+00	-3.66815E+00
-8.26582E-02	-1.45403E-01	2.02115E+00	-3.65472E+00
-1.44202E-01	-7.97892E-02	2.02101E+00	-3.64139E+00
-1.62240E-01	6.99847E-03	2.02087E+00	-3.62815E+00
-1.32811E-01	8.92330E-02	2.02071E+00	-3.61499E+00
-6.58221E-02	1.43237E-01	2.02054E+00	-3.60189E+00
1.82405E-02	1.54206E-01	2.02038E+00	-3.58884E+00
9.45166E-02	1.20229E-01	2.02025E+00	-3.57587E+00
1.41139E-01	5.24927E-02	2.02012E+00	-3.56300E+00
1.45497E-01	-2.83479E-02	2.01998E+00	-3.55021E+00
1.07634E-01	-9.84607E-02	2.01980E+00	-3.53749E+00
3.98505E-02	-1.37865E-01	2.01962E+00	-3.52478E+00
-3.72508E-02	-1.36127E-01	2.01949E+00	-3.51212E+00
-1.01020E-01	-9.51056E-02	2.01941E+00	-3.49957E+00
-1.33444E-01	-2.79904E-02	2.01932E+00	-3.48715E+00
-1.26197E-01	4.48871E-02	2.01918E+00	-3.47481E+00
-8.27627E-02	1.02227E-01	2.01900E+00	-3.46251E+00
-1.70029E-02	1.27989E-01	2.01881E+00	-3.45024E+00
5.12480E-02	1.15871E-01	2.01866E+00	-3.43800E+00
1.02164E-01	7.07802E-02	2.01854E+00	-3.42583E+00
1.21686E-01	6.99784E-03	2.01843E+00	-3.41376E+00
1.05382E-01	-5.63514E-02	2.01832E+00	-3.40176E+00
5.93448E-02	-1.00995E-01	2.01820E+00	-3.38984E+00
-1.97910E-03	-1.14790E-01	2.01805E+00	-3.37798E+00
-6.03097E-02	-9.49812E-02	2.01789E+00	-3.36617E+00
-9.89654E-02	-4.86103E-02	2.01773E+00	-3.35441E+00
-1.07604E-01	9.91925E-03	2.01759E+00	-3.34268E+00
-8.49379E-02	6.32876E-02	2.01746E+00	-3.33102E+00
-3.87096E-02	9.63726E-02	2.01735E+00	-3.31942E+00
1.68879E-02	1.00459E-01	2.01725E+00	-3.30790E+00
6.55444E-02	7.54826E-02	2.01713E+00	-3.29646E+00
9.35684E-02	2.96900E-02	2.01699E+00	-3.28508E+00
9.36763E-02	-2.30468E-02	2.01684E+00	-3.27373E+00
6.68055E-02	-6.73865E-02	2.01670E+00	-3.26241E+00
2.15347E-02	-9.09170E-02	2.01658E+00	-3.25114E+00
-2.86125E-02	-8.75525E-02	2.01649E+00	-3.23994E+00
-6.91665E-02	-5.90238E-02	2.01640E+00	-3.22882E+00
-8.87764E-02	-1.41398E-02	2.01630E+00	-3.21777E+00
-8.23178E-02	3.38897E-02	2.01619E+00	-3.20677E+00
-5.21536E-02	7.12666E-02	2.01607E+00	-3.19583E+00
-7.29996E-03	8.74700E-02	2.01595E+00	-3.18493E+00
3.92169E-02	7.81245E-02	2.01584E+00	-3.17407E+00
7.40478E-02	4.61286E-02	2.01576E+00	-3.16328E+00
8.72526E-02	7.53450E-04	2.01565E+00	-3.15257E+00
7.50264E-02	-4.49586E-02	2.01553E+00	-3.14191E+00
