 Vespa-Simulation Mixed Metabolite Output
 This file was generated by Vespa-Simulation. You can learn about and download Vespa here:
https://github.com/vespa-mrs/vespa/tree/main/vespa

 
 Output Path/Filename = /home/stud/casperc/bhome/Project1(DeepFit)/DeepFit-data-generation/DeepFitData_TE_20_lw10_2048p
 Output Loop Values = (1,1,1)  ( Loop 1 = 10, Loop 2 = 10, Loop3 Inactive )
 Output Comment
 ---------------------------------------------------------------------------
 
 
 Experiment Information
 ---------------------------------------------------------------------------
 --- Experiment 18b0168e-f5f0-4bd4-8d52-da93aba06c60 ---
 Name: SyntheticDataSetDeepFitTE20
 Public: False
 Created: 2024-10-08T09:55:07
 Comment (abbr.): 
 PI: Casper Cappelen
 b0: 127.740000
 Peak Search PPM low/high: -15.000000 / 15.000000
 Blend tol. PPM/phase: 0.001500 / 50.000000
 Pulse seq.: 43be13ae-de9a-40a1-9a2d-c872d8bjs100 (PRESS Ideal)
 0 User static parameters: 
 22 Metabolites: 2-hydroxyglutarate, GPC-pcholine2, NAAG-truncated, alanine, choline-trimethyl, creatine, ethanolamine, gaba, glucose-beta, glutamate, glutamine, glutathione-glutamate, glutathione-glycine-cysteine, glycine, lactate, myo-inositol, n-acetylaspartate, phosphocreatine, phosphorylcholine-trimethyl, phosphorylethanolamine, pyruvate, taurine
 22 Simulations: (not shown)
 
 Metabolite Formatting Information
 ---------------------------------------------------------------------------
 Name=2-hydroxyglutarate Abbr=2HG Scale=1.0 Shift=0.0 PPM Start=-3.1207465171441986 PPM End=12.528391440425866
 Name=GPC-pcholine2 Abbr=GPC Scale=1.0 Shift=0.0 PPM Start=-3.1207465171441986 PPM End=12.528391440425866
 Name=NAAG-truncated Abbr=NAAG Scale=1.0 Shift=0.0 PPM Start=-3.1207465171441986 PPM End=12.528391440425866
 Name=alanine Abbr=Ala Scale=1.0 Shift=0.0 PPM Start=-3.1207465171441986 PPM End=12.528391440425866
 Name=choline-trimethyl Abbr=Cho Scale=1.0 Shift=0.0 PPM Start=-3.1207465171441986 PPM End=12.528391440425866
 Name=creatine Abbr=Cr Scale=1.0 Shift=0.0 PPM Start=-3.1207465171441986 PPM End=12.528391440425866
 Name=ethanolamine Abbr=ETA Scale=1.0 Shift=0.0 PPM Start=-3.1207465171441986 PPM End=12.528391440425866
 Name=gaba Abbr=GABA Scale=1.0 Shift=0.0 PPM Start=-3.1207465171441986 PPM End=12.528391440425866
 Name=glucose-beta Abbr=Glc Scale=1.0 Shift=0.0 PPM Start=-3.1207465171441986 PPM End=12.528391440425866
 Name=glutamate Abbr=Glu Scale=1.0 Shift=0.0 PPM Start=-3.1207465171441986 PPM End=12.528391440425866
 Name=glutamine Abbr=Gln Scale=1.0 Shift=0.0 PPM Start=-3.1207465171441986 PPM End=12.528391440425866
 Name=glycine Abbr=Gly Scale=1.0 Shift=0.0 PPM Start=-3.1207465171441986 PPM End=12.528391440425866
 Name=lactate Abbr=Lac Scale=1.0 Shift=0.0 PPM Start=-3.1207465171441986 PPM End=12.528391440425866
 Name=myo-inositol Abbr=mI Scale=1.0 Shift=0.0 PPM Start=-3.1207465171441986 PPM End=12.528391440425866
 Name=n-acetylaspartate Abbr=NAA Scale=1.0 Shift=0.0 PPM Start=-3.1207465171441986 PPM End=12.528391440425866
 Name=phosphocreatine Abbr=PCr Scale=1.0 Shift=0.0 PPM Start=-3.1207465171441986 PPM End=12.528391440425866
 Name=phosphorylcholine-trimethyl Abbr=PCho Scale=1.0 Shift=0.0 PPM Start=-3.1207465171441986 PPM End=12.528391440425866
 Name=phosphorylethanolamine Abbr=PE Scale=1.0 Shift=0.0 PPM Start=-3.1207465171441986 PPM End=12.528391440425866
 Name=pyruvate Abbr=Pyr Scale=1.0 Shift=0.0 PPM Start=-3.1207465171441986 PPM End=12.528391440425866
 Name=taurine Abbr=Tau Scale=1.0 Shift=0.0 PPM Start=-3.1207465171441986 PPM End=12.528391440425866
 Name=glutathione-glutamate+glutathione-glycine-cysteine Abbr=GSH Scale=1.0 Shift=0.0 PPM Start=-3.1207565171441987 PPM End=12.528
   Mixture of [metab*scale] = glutathione-glutamate*1.000000 + glutathione-glycine-cysteine*1.000000
 
 ===========================================================================
 This LCModel format RAW file was created using the 
 Vespa-Simulation spectral simulation program using 
 the following settings and parameters 
 
 Sweep Width = 2000.0 Hz 
 Vector Size = 2048 points 
 Apodization = 10.0 Hz Gaussian broadening
 B0 Field    = 127.74 MHz 
 Ref Singlet = False
  
 $NMID ID='2HG'
 FMTDAT='(2E16.6)'
 VOLUME=1.0
 TRAMP=1.0
 $END
    4.583992E+00    2.722371E-02
    2.667680E+00    3.468938E+00
   -1.139488E+00    3.628043E+00
   -3.055361E+00    5.807321E-01
   -1.339428E+00   -2.367135E+00
    1.985174E+00   -2.152486E+00
    3.336386E+00    9.296267E-01
    1.282152E+00    3.677590E+00
   -2.131542E+00    3.368528E+00
   -3.651126E+00    4.451567E-01
   -2.124838E+00   -2.175487E+00
    5.746377E-01   -2.194118E+00
    1.711320E+00   -9.231427E-02
    4.418103E-01    1.688086E+00
   -1.636643E+00    1.370973E+00
   -2.383292E+00   -5.545191E-01
   -1.229100E+00   -2.169029E+00
    5.806080E-01   -2.170508E+00
    1.498444E+00   -9.339350E-01
    1.129489E+00    2.234643E-01
    2.618995E-01    4.545917E-01
   -1.808663E-01   -3.539636E-02
    3.491216E-02   -5.355189E-01
    5.453038E-01   -6.112607E-01
    9.515132E-01   -2.977891E-01
    1.097602E+00    2.071242E-01
    9.385133E-01    7.564963E-01
    4.378952E-01    1.162986E+00
   -2.697811E-01    1.150912E+00
   -7.681829E-01    6.197098E-01
   -6.550186E-01   -7.409104E-02
   -2.933102E-02   -3.069617E-01
    4.487298E-01    1.887242E-01
    1.575130E-01    9.334239E-01
   -7.899402E-01    1.081998E+00
   -1.549158E+00    2.836778E-01
   -1.347541E+00   -8.806801E-01
   -2.927267E-01   -1.411870E+00
    6.821641E-01   -8.802692E-01
    7.251226E-01    1.276600E-01
   -9.071535E-02    5.840023E-01
   -8.489923E-01    3.877268E-02
   -7.097694E-01   -9.481360E-01
    2.688513E-01   -1.381496E+00
    1.215426E+00   -8.100762E-01
    1.312032E+00    2.648794E-01
    5.601506E-01    9.144649E-01
   -2.802607E-01    6.748185E-01
   -4.562609E-01   -6.693823E-02
    8.812597E-02   -5.108659E-01
    7.316700E-01   -2.198586E-01
    8.134592E-01    5.173447E-01
    2.373880E-01    1.021837E+00
   -4.998542E-01    8.734530E-01
   -8.119945E-01    2.528361E-01
   -5.427408E-01   -2.879619E-01
   -4.286657E-02   -3.485897E-01
    2.013462E-01   -8.824666E-04
    3.583813E-03    3.410334E-01
   -4.054452E-01    3.242712E-01
   -6.316859E-01   -4.903714E-02
   -4.731172E-01   -4.690302E-01
   -6.444338E-02   -6.157742E-01
    2.770993E-01   -4.231260E-01
    3.330781E-01   -9.713314E-02
    1.442451E-01    8.882321E-02
   -6.142014E-02    2.311692E-02
   -8.048016E-02   -1.783061E-01
    1.037834E-01   -2.978617E-01
    3.306224E-01   -2.068792E-01
    4.119996E-01    3.894667E-02
    2.869805E-01    2.623220E-01
    5.827329E-02    3.170059E-01
   -1.049050E-01    1.999747E-01
   -1.069291E-01    3.868035E-02
    6.303350E-03   -2.445005E-02
    9.963418E-02    5.110187E-02
    6.905713E-02    1.801913E-01
   -7.309432E-02    2.337278E-01
   -2.159788E-01    1.511858E-01
   -2.495768E-01   -1.179974E-02
   -1.570552E-01   -1.366832E-01
   -2.258136E-02   -1.448025E-01
    4.665805E-02   -5.945492E-02
    1.213833E-02    2.306795E-02
   -7.012503E-02    2.232512E-02
   -1.069779E-01   -5.827064E-02
   -5.306353E-02   -1.415691E-01
    5.260515E-02   -1.502861E-01
    1.266527E-01   -7.506850E-02
    1.171526E-01    2.208402E-02
    4.592904E-02    6.711647E-02
   -1.725458E-02    3.879831E-02
   -2.026913E-02   -1.861187E-02
    2.757611E-02   -4.176353E-02
    7.081742E-02   -7.144263E-03
    6.322560E-02    5.165726E-02
    9.457663E-03    8.029790E-02
   -4.387596E-02    5.553678E-02
   -5.479437E-02    3.443411E-03
   -2.344253E-02   -2.959334E-02
    1.334028E-02   -2.133335E-02
    2.069285E-02    9.494009E-03
   -2.386600E-03    2.659538E-02
   -2.712678E-02    1.286149E-02
   -2.666314E-02   -1.595302E-02
   -1.668845E-03   -3.064977E-02
    2.366994E-02   -1.823620E-02
    2.750224E-02    7.799588E-03
    1.039053E-02    2.368829E-02
   -8.595339E-03    1.892706E-02
   -1.256230E-02    3.856901E-03
   -2.298227E-03   -3.471722E-03
    7.176084E-03    4.265600E-03
    2.988350E-03    1.794024E-02
   -1.333669E-02    2.245327E-02
   -2.848361E-02    1.155971E-02
   -3.051747E-02   -7.057832E-03
   -1.943840E-02   -1.985700E-02
   -5.978081E-03   -1.994847E-02
   -9.174664E-04   -1.244493E-02
   -5.313396E-03   -8.537458E-03
   -1.032668E-02   -1.448171E-02
   -6.208654E-03   -2.577568E-02
    8.199527E-03   -3.162072E-02
    2.427484E-02   -2.519051E-02
    3.161914E-02   -9.960105E-03
    2.751543E-02    3.777409E-03
    1.880202E-02    8.639496E-03
    1.461990E-02    6.594933E-03
    1.742516E-02    6.009822E-03
    2.116602E-02    1.262644E-02
    1.805931E-02    2.374599E-02
    6.706109E-03    3.125959E-02
   -6.723286E-03    2.994146E-02
   -1.497202E-02    2.224779E-02
   -1.667246E-02    1.499918E-02
   -1.662214E-02    1.201926E-02
   -1.965259E-02    1.070784E-02
   -2.506605E-02    5.842582E-03
   -2.755771E-02   -3.967125E-03
   -2.329848E-02   -1.427842E-02
   -1.443573E-02   -1.932225E-02
   -7.150737E-03   -1.810737E-02
   -5.260147E-03   -1.559532E-02
   -5.997947E-03   -1.751756E-02
   -2.572295E-03   -2.390615E-02
    8.567518E-03   -2.801006E-02
    2.274226E-02   -2.241497E-02
    2.991453E-02   -7.150157E-03
    2.394527E-02    8.300343E-03
    9.928010E-03    1.252869E-02
    1.388019E-03    3.586590E-03
    7.826151E-03   -6.985896E-03
    2.359424E-02   -3.699476E-03
    3.061465E-02    1.671855E-02
    1.544430E-02    3.869573E-02
   -1.471802E-02    4.043463E-02
   -3.515567E-02    1.629310E-02
   -2.670250E-02   -1.381485E-02
    2.733791E-03   -2.118352E-02
    2.237408E-02    2.325721E-03
    8.412077E-03    3.255979E-02
   -2.929084E-02    3.481142E-02
   -5.349997E-02    8.376240E-06
   -3.637175E-02   -4.239272E-02
    9.804878E-03   -5.164540E-02
    4.190913E-02   -1.772167E-02
    2.888293E-02    2.591865E-02
   -1.518333E-02    3.473392E-02
   -4.374354E-02   -1.032376E-03
   -2.506703E-02   -4.504179E-02
    2.451313E-02   -5.133204E-02
    5.661704E-02   -1.149372E-02
