 Vespa-Simulation Mixed Metabolite Output
 This file was generated by Vespa-Simulation. You can learn about and download Vespa here:
https://github.com/vespa-mrs/vespa/tree/main/vespa

 
 Output Path/Filename = /home/stud/casperc/bhome/Project1(DeepFit)/DeepFit-data-generation/DeepFitData_TE_20_lw10_2048p
 Output Loop Values = (1,1,1)  ( Loop 1 = 10, Loop 2 = 10, Loop3 Inactive )
 Output Comment
 ---------------------------------------------------------------------------
 
 
 Experiment Information
 ---------------------------------------------------------------------------
 --- Experiment 18b0168e-f5f0-4bd4-8d52-da93aba06c60 ---
 Name: SyntheticDataSetDeepFitTE20
 Public: False
 Created: 2024-10-08T09:55:07
 Comment (abbr.): 
 PI: Casper Cappelen
 b0: 127.740000
 Peak Search PPM low/high: -15.000000 / 15.000000
 Blend tol. PPM/phase: 0.001500 / 50.000000
 Pulse seq.: 43be13ae-de9a-40a1-9a2d-c872d8bjs100 (PRESS Ideal)
 0 User static parameters: 
 22 Metabolites: 2-hydroxyglutarate, GPC-pcholine2, NAAG-truncated, alanine, choline-trimethyl, creatine, ethanolamine, gaba, glucose-beta, glutamate, glutamine, glutathione-glutamate, glutathione-glycine-cysteine, glycine, lactate, myo-inositol, n-acetylaspartate, phosphocreatine, phosphorylcholine-trimethyl, phosphorylethanolamine, pyruvate, taurine
 22 Simulations: (not shown)
 
 Metabolite Formatting Information
 ---------------------------------------------------------------------------
 Name=2-hydroxyglutarate Abbr=2HG Scale=1.0 Shift=0.0 PPM Start=-3.1207465171441986 PPM End=12.528391440425866
 Name=GPC-pcholine2 Abbr=GPC Scale=1.0 Shift=0.0 PPM Start=-3.1207465171441986 PPM End=12.528391440425866
 Name=NAAG-truncated Abbr=NAAG Scale=1.0 Shift=0.0 PPM Start=-3.1207465171441986 PPM End=12.528391440425866
 Name=alanine Abbr=Ala Scale=1.0 Shift=0.0 PPM Start=-3.1207465171441986 PPM End=12.528391440425866
 Name=choline-trimethyl Abbr=Cho Scale=1.0 Shift=0.0 PPM Start=-3.1207465171441986 PPM End=12.528391440425866
 Name=creatine Abbr=Cr Scale=1.0 Shift=0.0 PPM Start=-3.1207465171441986 PPM End=12.528391440425866
 Name=ethanolamine Abbr=ETA Scale=1.0 Shift=0.0 PPM Start=-3.1207465171441986 PPM End=12.528391440425866
 Name=gaba Abbr=GABA Scale=1.0 Shift=0.0 PPM Start=-3.1207465171441986 PPM End=12.528391440425866
 Name=glucose-beta Abbr=Glc Scale=1.0 Shift=0.0 PPM Start=-3.1207465171441986 PPM End=12.528391440425866
 Name=glutamate Abbr=Glu Scale=1.0 Shift=0.0 PPM Start=-3.1207465171441986 PPM End=12.528391440425866
 Name=glutamine Abbr=Gln Scale=1.0 Shift=0.0 PPM Start=-3.1207465171441986 PPM End=12.528391440425866
 Name=glycine Abbr=Gly Scale=1.0 Shift=0.0 PPM Start=-3.1207465171441986 PPM End=12.528391440425866
 Name=lactate Abbr=Lac Scale=1.0 Shift=0.0 PPM Start=-3.1207465171441986 PPM End=12.528391440425866
 Name=myo-inositol Abbr=mI Scale=1.0 Shift=0.0 PPM Start=-3.1207465171441986 PPM End=12.528391440425866
 Name=n-acetylaspartate Abbr=NAA Scale=1.0 Shift=0.0 PPM Start=-3.1207465171441986 PPM End=12.528391440425866
 Name=phosphocreatine Abbr=PCr Scale=1.0 Shift=0.0 PPM Start=-3.1207465171441986 PPM End=12.528391440425866
 Name=phosphorylcholine-trimethyl Abbr=PCho Scale=1.0 Shift=0.0 PPM Start=-3.1207465171441986 PPM End=12.528391440425866
 Name=phosphorylethanolamine Abbr=PE Scale=1.0 Shift=0.0 PPM Start=-3.1207465171441986 PPM End=12.528391440425866
 Name=pyruvate Abbr=Pyr Scale=1.0 Shift=0.0 PPM Start=-3.1207465171441986 PPM End=12.528391440425866
 Name=taurine Abbr=Tau Scale=1.0 Shift=0.0 PPM Start=-3.1207465171441986 PPM End=12.528391440425866
 Name=glutathione-glutamate+glutathione-glycine-cysteine Abbr=GSH Scale=1.0 Shift=0.0 PPM Start=-3.1207565171441987 PPM End=12.528
   Mixture of [metab*scale] = glutathione-glutamate*1.000000 + glutathione-glycine-cysteine*1.000000
 
 ===========================================================================
 This LCModel format RAW file was created using the 
 Vespa-Simulation spectral simulation program using 
 the following settings and parameters 
 
 Sweep Width = 2000.0 Hz 
 Vector Size = 2048 points 
 Apodization = 10.0 Hz Gaussian broadening
 B0 Field    = 127.74 MHz 
 Ref Singlet = False
  
 This data has been FFTd to be in the FREQUENCY domain
 
 $NMID ID='2HG'
 FMTDAT='(2E16.6)'
 VOLUME=1.0
 TRAMP=1.0
 $END
    2.296030E+00    6.468203E+00
    2.297148E+00    6.517501E+00
    2.298315E+00    6.567739E+00
    2.299534E+00    6.618950E+00
    2.300809E+00    6.671166E+00
    2.302142E+00    6.724423E+00
    2.303536E+00    6.778756E+00
    2.304993E+00    6.834204E+00
    2.306518E+00    6.890808E+00
    2.308114E+00    6.948610E+00
    2.309784E+00    7.007655E+00
    2.311533E+00    7.067990E+00
    2.313366E+00    7.129665E+00
    2.315289E+00    7.192731E+00
    2.317307E+00    7.257243E+00
    2.319426E+00    7.323258E+00
    2.321653E+00    7.390836E+00
    2.323993E+00    7.460041E+00
    2.326454E+00    7.530940E+00
    2.329043E+00    7.603604E+00
    2.331768E+00    7.678109E+00
    2.334638E+00    7.754534E+00
    2.337664E+00    7.832960E+00
    2.340853E+00    7.913475E+00
    2.344217E+00    7.996171E+00
    2.347762E+00    8.081143E+00
    2.351497E+00    8.168493E+00
    2.355427E+00    8.258325E+00
    2.359550E+00    8.350751E+00
    2.363859E+00    8.445890E+00
    2.368332E+00    8.543873E+00
    2.372933E+00    8.644850E+00
    2.377611E+00    8.749005E+00
    2.382307E+00    8.856565E+00
    2.386968E+00    8.967815E+00
    2.391569E+00    9.083100E+00
    2.396137E+00    9.202827E+00
    2.400781E+00    9.327436E+00
    2.405698E+00    9.457372E+00
    2.411173E+00    9.593047E+00
    2.417552E+00    9.734797E+00
    2.425194E+00    9.882865E+00
    2.434416E+00    1.003741E+01
    2.445443E+00    1.019852E+01
    2.458379E+00    1.036630E+01
    2.473202E+00    1.054092E+01
    2.489797E+00    1.072267E+01
    2.508007E+00    1.091201E+01
    2.527686E+00    1.110957E+01
    2.548750E+00    1.131613E+01
    2.571191E+00    1.153260E+01
    2.595082E+00    1.176000E+01
    2.620538E+00    1.199939E+01
    2.647678E+00    1.225198E+01
    2.676582E+00    1.251911E+01
    2.707274E+00    1.280237E+01
    2.739746E+00    1.310375E+01
    2.774038E+00    1.342571E+01
    2.810374E+00    1.377138E+01
    2.849347E+00    1.414456E+01
    2.892112E+00    1.454979E+01
    2.940564E+00    1.499231E+01
    2.997467E+00    1.547808E+01
    3.066568E+00    1.601384E+01
    3.152783E+00    1.660736E+01
    3.262597E+00    1.726782E+01
    3.404937E+00    1.800637E+01
    3.592710E+00    1.883642E+01
    3.845177E+00    1.977338E+01
    4.190998E+00    2.083305E+01
    4.671385E+00    2.202796E+01
    5.342106E+00    2.336105E+01
    6.272496E+00    2.481693E+01
    7.539453E+00    2.635207E+01
    9.215099E+00    2.788701E+01
    1.134878E+01    2.930481E+01
    1.394704E+01    3.045958E+01
    1.695795E+01    3.119680E+01
    2.026726E+01    3.138227E+01
    2.371119E+01    3.093199E+01
    2.710520E+01    2.983223E+01
    3.028071E+01    2.814105E+01
    3.311705E+01    2.596900E+01
    3.555678E+01    2.344558E+01
    3.759910E+01    2.068466E+01
    3.927604E+01    1.776218E+01
    4.062333E+01    1.471309E+01
    4.165876E+01    1.154479E+01
    4.237522E+01    8.257151E+00
    4.274611E+01    4.858283E+00
    4.273562E+01    1.371050E+00
    4.230583E+01   -2.167329E+00
    4.141881E+01   -5.705956E+00
    4.003776E+01   -9.176469E+00
    3.813377E+01   -1.248613E+01
    3.570091E+01   -1.551463E+01
    3.277553E+01   -1.812206E+01
    2.945044E+01   -2.017039E+01
    2.587486E+01   -2.155316E+01
    2.223662E+01   -2.222258E+01
    1.873128E+01   -2.220356E+01
    1.552832E+01   -2.158923E+01
    1.274536E+01   -2.052033E+01
    1.043717E+01   -1.915618E+01
    8.600114E+00   -1.764697E+01
    7.187454E+00   -1.611420E+01
    6.128876E+00   -1.464223E+01
    5.348153E+00   -1.327950E+01
    4.775543E+00   -1.204588E+01
    4.354112E+00   -1.094217E+01
    4.041075E+00   -9.958815E+00
    3.806046E+00   -9.082336E+00
    3.627986E+00   -8.299174E+00
    3.492131E+00   -7.597380E+00
    3.387600E+00   -6.966896E+00
    3.305874E+00   -6.399152E+00
    3.240042E+00   -5.886494E+00
    3.184554E+00   -5.421788E+00
    3.135199E+00   -4.998271E+00
    3.089095E+00   -4.609636E+00
    3.044574E+00   -4.250216E+00
    3.000955E+00   -3.915166E+00
    2.958240E+00   -3.600553E+00
    2.916810E+00   -3.303331E+00
    2.877171E+00   -3.021239E+00
    2.839779E+00   -2.752633E+00
    2.804945E+00   -2.496322E+00
    2.772801E+00   -2.251412E+00
    2.743308E+00   -2.017173E+00
    2.716300E+00   -1.792953E+00
    2.691537E+00   -1.578112E+00
    2.668765E+00   -1.372004E+00
    2.647768E+00   -1.173978E+00
    2.628392E+00   -9.834105E-01
    2.610550E+00   -7.997391E-01
    2.594198E+00   -6.224874E-01
    2.579302E+00   -4.512731E-01
    2.565799E+00   -2.857906E-01
    2.553586E+00   -1.257791E-01
    2.542515E+00    2.901331E-02
    2.532424E+00    1.788542E-01
    2.523154E+00    3.240315E-01
    2.514580E+00    4.648407E-01
    2.506611E+00    6.015629E-01
    2.499179E+00    7.344484E-01
    2.492219E+00    8.637125E-01
    2.485656E+00    9.895467E-01
    2.479394E+00    1.112138E+00
    2.473330E+00    1.231685E+00
    2.467370E+00    1.348406E+00
    2.461441E+00    1.462533E+00
    2.455508E+00    1.574301E+00
    2.449565E+00    1.683927E+00
    2.443636E+00    1.791606E+00
    2.437758E+00    1.897500E+00
    2.431968E+00    2.001741E+00
    2.426301E+00    2.104436E+00
    2.420780E+00    2.205677E+00
    2.415420E+00    2.305543E+00
    2.410226E+00    2.404108E+00
    2.405198E+00    2.501442E+00
    2.400330E+00    2.597614E+00
    2.395617E+00    2.692691E+00
    2.391050E+00    2.786738E+00
    2.386622E+00    2.879821E+00
    2.382325E+00    2.972002E+00
    2.378152E+00    3.063342E+00
    2.374097E+00    3.153898E+00
    2.370152E+00    3.243727E+00
    2.366313E+00    3.332884E+00
    2.362573E+00    3.421421E+00
    2.358927E+00    3.509389E+00
    2.355369E+00    3.596837E+00
