 Vespa-Simulation Mixed Metabolite Output
 This file was generated by Vespa-Simulation. You can learn about and download Vespa here:
https://github.com/vespa-mrs/vespa/tree/main/vespa

 
 Output Path/Filename = /home/stud/casperc/bhome/Project1(DeepFit)/DeepFit-data-generation/DeepFitData_TE_20_lw10_2048p
 Output Loop Values = (1,1,1)  ( Loop 1 = 10, Loop 2 = 10, Loop3 Inactive )
 Output Comment
 ---------------------------------------------------------------------------
 
 
 Experiment Information
 ---------------------------------------------------------------------------
 --- Experiment 18b0168e-f5f0-4bd4-8d52-da93aba06c60 ---
 Name: SyntheticDataSetDeepFitTE20
 Public: False
 Created: 2024-10-08T09:55:07
 Comment (abbr.): 
 PI: Casper Cappelen
 b0: 127.740000
 Peak Search PPM low/high: -15.000000 / 15.000000
 Blend tol. PPM/phase: 0.001500 / 50.000000
 Pulse seq.: 43be13ae-de9a-40a1-9a2d-c872d8bjs100 (PRESS Ideal)
 0 User static parameters: 
 22 Metabolites: 2-hydroxyglutarate, GPC-pcholine2, NAAG-truncated, alanine, choline-trimethyl, creatine, ethanolamine, gaba, glucose-beta, glutamate, glutamine, glutathione-glutamate, glutathione-glycine-cysteine, glycine, lactate, myo-inositol, n-acetylaspartate, phosphocreatine, phosphorylcholine-trimethyl, phosphorylethanolamine, pyruvate, taurine
 22 Simulations: (not shown)
 
 Metabolite Formatting Information
 ---------------------------------------------------------------------------
 Name=2-hydroxyglutarate Abbr=2HG Scale=1.0 Shift=0.0 PPM Start=-3.1207465171441986 PPM End=12.528391440425866
 Name=GPC-pcholine2 Abbr=GPC Scale=1.0 Shift=0.0 PPM Start=-3.1207465171441986 PPM End=12.528391440425866
 Name=NAAG-truncated Abbr=NAAG Scale=1.0 Shift=0.0 PPM Start=-3.1207465171441986 PPM End=12.528391440425866
 Name=alanine Abbr=Ala Scale=1.0 Shift=0.0 PPM Start=-3.1207465171441986 PPM End=12.528391440425866
 Name=choline-trimethyl Abbr=Cho Scale=1.0 Shift=0.0 PPM Start=-3.1207465171441986 PPM End=12.528391440425866
 Name=creatine Abbr=Cr Scale=1.0 Shift=0.0 PPM Start=-3.1207465171441986 PPM End=12.528391440425866
 Name=ethanolamine Abbr=ETA Scale=1.0 Shift=0.0 PPM Start=-3.1207465171441986 PPM End=12.528391440425866
 Name=gaba Abbr=GABA Scale=1.0 Shift=0.0 PPM Start=-3.1207465171441986 PPM End=12.528391440425866
 Name=glucose-beta Abbr=Glc Scale=1.0 Shift=0.0 PPM Start=-3.1207465171441986 PPM End=12.528391440425866
 Name=glutamate Abbr=Glu Scale=1.0 Shift=0.0 PPM Start=-3.1207465171441986 PPM End=12.528391440425866
 Name=glutamine Abbr=Gln Scale=1.0 Shift=0.0 PPM Start=-3.1207465171441986 PPM End=12.528391440425866
 Name=glycine Abbr=Gly Scale=1.0 Shift=0.0 PPM Start=-3.1207465171441986 PPM End=12.528391440425866
 Name=lactate Abbr=Lac Scale=1.0 Shift=0.0 PPM Start=-3.1207465171441986 PPM End=12.528391440425866
 Name=myo-inositol Abbr=mI Scale=1.0 Shift=0.0 PPM Start=-3.1207465171441986 PPM End=12.528391440425866
 Name=n-acetylaspartate Abbr=NAA Scale=1.0 Shift=0.0 PPM Start=-3.1207465171441986 PPM End=12.528391440425866
 Name=phosphocreatine Abbr=PCr Scale=1.0 Shift=0.0 PPM Start=-3.1207465171441986 PPM End=12.528391440425866
 Name=phosphorylcholine-trimethyl Abbr=PCho Scale=1.0 Shift=0.0 PPM Start=-3.1207465171441986 PPM End=12.528391440425866
 Name=phosphorylethanolamine Abbr=PE Scale=1.0 Shift=0.0 PPM Start=-3.1207465171441986 PPM End=12.528391440425866
 Name=pyruvate Abbr=Pyr Scale=1.0 Shift=0.0 PPM Start=-3.1207465171441986 PPM End=12.528391440425866
 Name=taurine Abbr=Tau Scale=1.0 Shift=0.0 PPM Start=-3.1207465171441986 PPM End=12.528391440425866
 Name=glutathione-glutamate+glutathione-glycine-cysteine Abbr=GSH Scale=1.0 Shift=0.0 PPM Start=-3.1207565171441987 PPM End=12.528
   Mixture of [metab*scale] = glutathione-glutamate*1.000000 + glutathione-glycine-cysteine*1.000000
 
 ===========================================================================
 This LCModel format RAW file was created using the 
 Vespa-Simulation spectral simulation program using 
 the following settings and parameters 
 
 Sweep Width = 2000.0 Hz 
 Vector Size = 2048 points 
 Apodization = 10.0 Hz Gaussian broadening
 B0 Field    = 127.74 MHz 
 Ref Singlet = False
  
 $NMID ID='Ala'
 FMTDAT='(2E16.6)'
 VOLUME=1.0
 TRAMP=1.0
 $END
    3.438944E+00   -1.229099E-02
    1.425178E+00    2.863708E+00
   -1.757771E+00    1.917742E+00
   -1.680202E+00   -1.150096E+00
    1.216334E+00   -1.676959E+00
    2.363247E+00    1.133266E+00
   -2.027474E-01    3.100744E+00
   -2.982953E+00    1.216442E+00
   -2.135740E+00   -1.982749E+00
    9.700575E-01   -2.139508E+00
    1.829269E+00    6.210723E-01
   -6.282107E-01    1.988278E+00
   -2.569636E+00   -1.833295E-01
   -9.308316E-01   -2.783420E+00
    2.124442E+00   -2.037789E+00
    2.399186E+00    1.011623E+00
   -2.572171E-01    2.092102E+00
   -1.838077E+00   -8.291499E-02
   -7.068578E-02   -2.052591E+00
    2.341689E+00   -7.496418E-01
    1.754074E+00    2.048593E+00
   -1.110757E+00    2.379944E+00
   -2.283019E+00   -1.412776E-01
   -3.247327E-01   -1.857551E+00
    1.689845E+00   -4.366297E-01
    7.476644E-01    1.822198E+00
   -1.751795E+00    1.454986E+00
   -2.136941E+00   -1.117195E+00
    1.741408E-01   -2.283578E+00
    1.912320E+00   -5.175560E-01
    7.578974E-01    1.502334E+00
   -1.376837E+00    8.796652E-01
   -1.255528E+00   -1.335554E+00
    9.708059E-01   -1.800459E+00
    2.086088E+00    2.231404E-01
    5.306252E-01    1.880650E+00
   -1.416009E+00    9.315286E-01
   -1.035656E+00   -1.074889E+00
    9.295917E-01   -1.173259E+00
    1.490979E+00    7.101960E-01
   -2.013818E-01    1.769216E+00
   -1.715494E+00    4.597345E-01
   -9.449053E-01   -1.331476E+00
    8.961022E-01   -1.117701E+00
    1.151220E+00    6.200813E-01
   -4.244664E-01    1.263503E+00
   -1.433680E+00   -9.928386E-02
   -3.921846E-01   -1.448222E+00
    1.187124E+00   -8.532206E-01
    1.088063E+00    7.744467E-01
   -4.226077E-01    1.115466E+00
   -1.105136E+00   -1.913939E-01
   -3.718646E-02   -1.145962E+00
    1.147874E+00   -3.648580E-01
    7.274355E-01    9.807664E-01
   -6.523820E-01    9.688509E-01
   -1.023141E+00   -3.026798E-01
    4.204468E-02   -9.713625E-01
    9.202960E-01   -1.523491E-01
    3.659636E-01    8.732002E-01
   -7.497579E-01    6.124633E-01
   -8.086511E-01   -5.100185E-01
    2.161314E-01   -8.756853E-01
    8.266998E-01   -3.596755E-02
    2.156387E-01    7.368155E-01
   -6.484324E-01    3.643082E-01
   -5.168518E-01   -5.355864E-01
    3.604973E-01   -6.472048E-01
    7.011266E-01    1.382396E-01
    7.199593E-02    6.633162E-01
   -5.715804E-01    2.282480E-01
   -3.381827E-01   -4.687466E-01
    3.601894E-01   -4.285934E-01
    5.005593E-01    2.269275E-01
   -6.762548E-02    5.280566E-01
   -4.943862E-01    8.808441E-02
   -2.079006E-01   -4.149911E-01
    3.200836E-01   -2.857303E-01
    3.361792E-01    2.244581E-01
   -1.232097E-01    3.675854E-01
   -3.711320E-01   -1.324511E-02
   -9.163000E-02   -3.368069E-01
    2.713300E-01   -1.710615E-01
    2.174231E-01    1.943344E-01
   -1.201991E-01    2.387219E-01
   -2.440926E-01   -4.980858E-02
   -1.951426E-02   -2.327414E-01
    1.997081E-01   -8.200180E-02
    1.255791E-01    1.482294E-01
   -9.133598E-02    1.440647E-01
   -1.426922E-01   -4.125991E-02
    8.740692E-04   -1.307479E-01
    1.119092E-01   -3.285113E-02
    5.972747E-02    8.434218E-02
   -4.873214E-02    7.400773E-02
   -7.116280E-02   -1.266565E-02
   -1.432378E-02   -5.422804E-02
    3.163341E-02   -2.834306E-02
    3.212519E-02    9.822009E-03
    1.013601E-02    2.923298E-02
   -1.950432E-02    2.878409E-02
   -4.333922E-02   -1.092733E-03
   -2.441191E-02   -4.822766E-02
    4.012611E-02   -5.078579E-02
    7.134320E-02    2.097077E-02
    4.467032E-03    8.312257E-02
   -8.635723E-02    3.282305E-02
   -6.288510E-02   -8.090272E-02
    6.490484E-02   -9.264381E-02
    1.174269E-01    3.740591E-02
   -1.036898E-03    1.320302E-01
   -1.340953E-01    3.912752E-02
   -7.896670E-02   -1.242333E-01
    1.030977E-01   -1.163102E-01
    1.483611E-01    7.005101E-02
   -2.576822E-02    1.699079E-01
   -1.759037E-01    2.487894E-02
   -7.456997E-02   -1.657018E-01
    1.429244E-01   -1.186417E-01
    1.567363E-01    1.103974E-01
   -6.693697E-02    1.882259E-01
   -2.074680E-01   -1.132127E-02
   -5.116708E-02   -2.065951E-01
    1.837928E-01   -1.091233E-01
    1.538670E-01    1.463845E-01
   -1.032436E-01    1.861477E-01
   -2.112170E-01   -5.523175E-02
   -3.194959E-03   -2.275158E-01
    2.243514E-01   -7.184283E-02
    1.378290E-01    1.936666E-01
   -1.419587E-01    1.848843E-01
   -2.092154E-01   -8.568866E-02
    3.398097E-02   -2.212708E-01
    2.295560E-01   -1.973810E-02
    8.485807E-02    2.265165E-01
   -1.962660E-01    1.548082E-01
   -2.077569E-01   -1.363821E-01
    6.572251E-02   -2.286536E-01
    2.256225E-01    5.937629E-03
    4.172021E-02    2.184208E-01
   -2.117932E-01    9.384174E-02
   -1.581474E-01   -1.881786E-01
    1.312290E-01   -2.165593E-01
    2.419984E-01    5.127849E-02
    2.131687E-02    2.297493E-01
   -2.031592E-01    6.900518E-02
   -1.050988E-01   -1.843311E-01
    1.660990E-01   -1.523831E-01
    2.084786E-01    1.222951E-01
   -4.499514E-02    2.431091E-01
   -2.331657E-01    3.897821E-02
   -9.561319E-02   -1.918823E-01
    1.536251E-01   -1.219749E-01
    1.461900E-01    1.318279E-01
   -1.036823E-01    1.875356E-01
   -2.274328E-01   -4.249352E-02
   -4.278908E-02   -2.298330E-01
    1.865915E-01   -1.124817E-01
    1.412335E-01    1.297655E-01
   -9.358271E-02    1.465226E-01
   -1.633847E-01   -7.362808E-02
    3.567666E-02   -1.968503E-01
    2.131393E-01   -3.610629E-02
    1.134000E-01    1.821497E-01
   -1.174879E-01    1.545419E-01
   -1.537260E-01   -6.221449E-02
    3.740762E-02   -1.458256E-01
    1.600853E-01    1.889593E-02
    2.792670E-02    1.816397E-01
   -1.703976E-01    9.941970E-02
   -1.539289E-01   -1.136394E-01
    4.500092E-02   -1.613270E-01
    1.389874E-01    5.055275E-03
    6.646911E-03    1.282345E-01
