 Vespa-Simulation Mixed Metabolite Output
 This file was generated by Vespa-Simulation. You can learn about and download Vespa here:
https://github.com/vespa-mrs/vespa/tree/main/vespa

 
 Output Path/Filename = /home/stud/casperc/bhome/Project1(DeepFit)/DeepFit-data-generation/DeepFitData_TE_20_lw10_2048p
 Output Loop Values = (1,1,1)  ( Loop 1 = 10, Loop 2 = 10, Loop3 Inactive )
 Output Comment
 ---------------------------------------------------------------------------
 
 
 Experiment Information
 ---------------------------------------------------------------------------
 --- Experiment 18b0168e-f5f0-4bd4-8d52-da93aba06c60 ---
 Name: SyntheticDataSetDeepFitTE20
 Public: False
 Created: 2024-10-08T09:55:07
 Comment (abbr.): 
 PI: Casper Cappelen
 b0: 127.740000
 Peak Search PPM low/high: -15.000000 / 15.000000
 Blend tol. PPM/phase: 0.001500 / 50.000000
 Pulse seq.: 43be13ae-de9a-40a1-9a2d-c872d8bjs100 (PRESS Ideal)
 0 User static parameters: 
 22 Metabolites: 2-hydroxyglutarate, GPC-pcholine2, NAAG-truncated, alanine, choline-trimethyl, creatine, ethanolamine, gaba, glucose-beta, glutamate, glutamine, glutathione-glutamate, glutathione-glycine-cysteine, glycine, lactate, myo-inositol, n-acetylaspartate, phosphocreatine, phosphorylcholine-trimethyl, phosphorylethanolamine, pyruvate, taurine
 22 Simulations: (not shown)
 
 Metabolite Formatting Information
 ---------------------------------------------------------------------------
 Name=2-hydroxyglutarate Abbr=2HG Scale=1.0 Shift=0.0 PPM Start=-3.1207465171441986 PPM End=12.528391440425866
 Name=GPC-pcholine2 Abbr=GPC Scale=1.0 Shift=0.0 PPM Start=-3.1207465171441986 PPM End=12.528391440425866
 Name=NAAG-truncated Abbr=NAAG Scale=1.0 Shift=0.0 PPM Start=-3.1207465171441986 PPM End=12.528391440425866
 Name=alanine Abbr=Ala Scale=1.0 Shift=0.0 PPM Start=-3.1207465171441986 PPM End=12.528391440425866
 Name=choline-trimethyl Abbr=Cho Scale=1.0 Shift=0.0 PPM Start=-3.1207465171441986 PPM End=12.528391440425866
 Name=creatine Abbr=Cr Scale=1.0 Shift=0.0 PPM Start=-3.1207465171441986 PPM End=12.528391440425866
 Name=ethanolamine Abbr=ETA Scale=1.0 Shift=0.0 PPM Start=-3.1207465171441986 PPM End=12.528391440425866
 Name=gaba Abbr=GABA Scale=1.0 Shift=0.0 PPM Start=-3.1207465171441986 PPM End=12.528391440425866
 Name=glucose-beta Abbr=Glc Scale=1.0 Shift=0.0 PPM Start=-3.1207465171441986 PPM End=12.528391440425866
 Name=glutamate Abbr=Glu Scale=1.0 Shift=0.0 PPM Start=-3.1207465171441986 PPM End=12.528391440425866
 Name=glutamine Abbr=Gln Scale=1.0 Shift=0.0 PPM Start=-3.1207465171441986 PPM End=12.528391440425866
 Name=glycine Abbr=Gly Scale=1.0 Shift=0.0 PPM Start=-3.1207465171441986 PPM End=12.528391440425866
 Name=lactate Abbr=Lac Scale=1.0 Shift=0.0 PPM Start=-3.1207465171441986 PPM End=12.528391440425866
 Name=myo-inositol Abbr=mI Scale=1.0 Shift=0.0 PPM Start=-3.1207465171441986 PPM End=12.528391440425866
 Name=n-acetylaspartate Abbr=NAA Scale=1.0 Shift=0.0 PPM Start=-3.1207465171441986 PPM End=12.528391440425866
 Name=phosphocreatine Abbr=PCr Scale=1.0 Shift=0.0 PPM Start=-3.1207465171441986 PPM End=12.528391440425866
 Name=phosphorylcholine-trimethyl Abbr=PCho Scale=1.0 Shift=0.0 PPM Start=-3.1207465171441986 PPM End=12.528391440425866
 Name=phosphorylethanolamine Abbr=PE Scale=1.0 Shift=0.0 PPM Start=-3.1207465171441986 PPM End=12.528391440425866
 Name=pyruvate Abbr=Pyr Scale=1.0 Shift=0.0 PPM Start=-3.1207465171441986 PPM End=12.528391440425866
 Name=taurine Abbr=Tau Scale=1.0 Shift=0.0 PPM Start=-3.1207465171441986 PPM End=12.528391440425866
 Name=glutathione-glutamate+glutathione-glycine-cysteine Abbr=GSH Scale=1.0 Shift=0.0 PPM Start=-3.1207565171441987 PPM End=12.528
   Mixture of [metab*scale] = glutathione-glutamate*1.000000 + glutathione-glycine-cysteine*1.000000
 
 ===========================================================================
 This LCModel format RAW file was created using the 
 Vespa-Simulation spectral simulation program using 
 the following settings and parameters 
 
 Sweep Width = 2000.0 Hz 
 Vector Size = 2048 points 
 Apodization = 10.0 Hz Gaussian broadening
 B0 Field    = 127.74 MHz 
 Ref Singlet = False
  
 This data has been FFTd to be in the FREQUENCY domain
 
 $NMID ID='Ala'
 FMTDAT='(2E16.6)'
 VOLUME=1.0
 TRAMP=1.0
 $END
    1.778633E+00    3.739515E+00
    1.779682E+00    3.762035E+00
    1.780758E+00    3.784860E+00
    1.781863E+00    3.808000E+00
    1.782999E+00    3.831461E+00
    1.784166E+00    3.855253E+00
    1.785368E+00    3.879383E+00
    1.786606E+00    3.903860E+00
    1.787882E+00    3.928692E+00
    1.789198E+00    3.953888E+00
    1.790556E+00    3.979457E+00
    1.791957E+00    4.005407E+00
    1.793402E+00    4.031747E+00
    1.794893E+00    4.058489E+00
    1.796429E+00    4.085641E+00
    1.798013E+00    4.113215E+00
    1.799644E+00    4.141225E+00
    1.801324E+00    4.169682E+00
    1.803055E+00    4.198601E+00
    1.804838E+00    4.227997E+00
    1.806678E+00    4.257884E+00
    1.808576E+00    4.288279E+00
    1.810538E+00    4.319196E+00
    1.812567E+00    4.350651E+00
    1.814669E+00    4.382660E+00
    1.816848E+00    4.415238E+00
    1.819106E+00    4.448402E+00
    1.821448E+00    4.482168E+00
    1.823877E+00    4.516556E+00
    1.826395E+00    4.551583E+00
    1.829006E+00    4.587272E+00
    1.831715E+00    4.623644E+00
    1.834525E+00    4.660721E+00
    1.837442E+00    4.698528E+00
    1.840468E+00    4.737089E+00
    1.843610E+00    4.776431E+00
    1.846872E+00    4.816584E+00
    1.850261E+00    4.857576E+00
    1.853785E+00    4.899441E+00
    1.857452E+00    4.942210E+00
    1.861274E+00    4.985917E+00
    1.865260E+00    5.030594E+00
    1.869419E+00    5.076275E+00
    1.873759E+00    5.122998E+00
    1.878288E+00    5.170801E+00
    1.883013E+00    5.219728E+00
    1.887944E+00    5.269826E+00
    1.893092E+00    5.321146E+00
    1.898470E+00    5.373744E+00
    1.904097E+00    5.427674E+00
    1.909991E+00    5.482994E+00
    1.916172E+00    5.539763E+00
    1.922661E+00    5.598043E+00
    1.929476E+00    5.657898E+00
    1.936637E+00    5.719397E+00
    1.944166E+00    5.782616E+00
    1.952085E+00    5.847636E+00
    1.960419E+00    5.914544E+00
    1.969195E+00    5.983436E+00
    1.978445E+00    6.054413E+00
    1.988206E+00    6.127582E+00
    1.998518E+00    6.203058E+00
    2.009425E+00    6.280963E+00
    2.020974E+00    6.361425E+00
    2.033217E+00    6.444583E+00
    2.046208E+00    6.530585E+00
    2.060008E+00    6.619594E+00
    2.074681E+00    6.711784E+00
    2.090301E+00    6.807348E+00
    2.106950E+00    6.906493E+00
    2.124722E+00    7.009446E+00
    2.143721E+00    7.116451E+00
    2.164065E+00    7.227776E+00
    2.185886E+00    7.343711E+00
    2.209334E+00    7.464574E+00
    2.234576E+00    7.590713E+00
    2.261802E+00    7.722512E+00
    2.291231E+00    7.860393E+00
    2.323111E+00    8.004824E+00
    2.357727E+00    8.156324E+00
    2.395410E+00    8.315469E+00
    2.436541E+00    8.482903E+00
    2.481568E+00    8.659350E+00
    2.531015E+00    8.845626E+00
    2.585504E+00    9.042655E+00
    2.645783E+00    9.251489E+00
    2.712754E+00    9.473334E+00
    2.787526E+00    9.709576E+00
    2.871479E+00    9.961818E+00
    2.966361E+00    1.023193E+01
    3.074440E+00    1.052207E+01
    3.198723E+00    1.083474E+01
    3.343285E+00    1.117272E+01
    3.513720E+00    1.153892E+01
    3.717700E+00    1.193599E+01
    3.965561E+00    1.236545E+01
    4.270661E+00    1.282632E+01
    4.649098E+00    1.331311E+01
    5.118218E+00    1.381344E+01
    5.693338E+00    1.430601E+01
    6.382593E+00    1.476019E+01
    7.180676E+00    1.513884E+01
    8.063621E+00    1.540565E+01
    8.987927E+00    1.553664E+01
    9.897474E+00    1.553329E+01
    1.073980E+01    1.543145E+01
    1.148923E+01    1.529949E+01
    1.216899E+01    1.522016E+01
    1.286088E+01    1.525705E+01
    1.369133E+01    1.541486E+01
    1.479050E+01    1.561029E+01
    1.623310E+01    1.567239E+01
    1.798267E+01    1.538298E+01
    1.986711E+01    1.455195E+01
    2.160628E+01    1.310250E+01
    2.289326E+01    1.112999E+01
    2.350505E+01    8.901241E+00
    2.339926E+01    6.782494E+00
    2.275157E+01    5.115197E+00
    2.190909E+01    4.086385E+00
    2.126973E+01    3.648867E+00
    2.113236E+01    3.529883E+00
    2.157924E+01    3.330408E+00
    2.244096E+01    2.677454E+00
    2.336031E+01    1.367403E+00
    2.392839E+01   -5.581537E-01
    2.383634E+01   -2.833006E+00
    2.298157E+01   -5.070640E+00
    2.148970E+01   -6.905587E+00
    1.965135E+01   -8.113697E+00
    1.780744E+01   -8.667765E+00
    1.623288E+01   -8.716155E+00
    1.506213E+01   -8.504220E+00
    1.427653E+01   -8.277290E+00
    1.374567E+01   -8.203817E+00
    1.329656E+01   -8.341602E+00
    1.277966E+01   -8.648695E+00
    1.210983E+01   -9.023715E+00
    1.127529E+01   -9.353764E+00
    1.032108E+01   -9.551748E+00
    9.320390E+00   -9.574261E+00
    8.347072E+00   -9.420853E+00
    7.457285E+00   -9.121465E+00
    6.682508E+00   -8.720237E+00
    6.031445E+00   -8.261809E+00
    5.496640E+00   -7.782937E+00
    5.061980E+00   -7.309391E+00
    4.708754E+00   -6.856546E+00
    4.419427E+00   -6.431787E+00
    4.179383E+00   -6.037244E+00
    3.977267E+00   -5.672087E+00
    3.804607E+00   -5.334110E+00
    3.655188E+00   -5.020664E+00
    3.524448E+00   -4.729136E+00
    3.408990E+00   -4.457147E+00
    3.306238E+00   -4.202604E+00
    3.214196E+00   -3.963688E+00
    3.131287E+00   -3.738827E+00
    3.056244E+00   -3.526658E+00
    2.988036E+00   -3.325995E+00
    2.925810E+00   -3.135806E+00
    2.868849E+00   -2.955184E+00
    2.816547E+00   -2.783330E+00
    2.768387E+00   -2.619533E+00
    2.723923E+00   -2.463159E+00
    2.682772E+00   -2.313638E+00
    2.644602E+00   -2.170459E+00
    2.609121E+00   -2.033163E+00
    2.576075E+00   -1.901334E+00
    2.545238E+00   -1.774594E+00
    2.516408E+00   -1.652598E+00
    2.489407E+00   -1.535032E+00
    2.464077E+00   -1.421605E+00
