 Vespa-Simulation Mixed Metabolite Output
 This file was generated by Vespa-Simulation. You can learn about and download Vespa here:
https://github.com/vespa-mrs/vespa/tree/main/vespa

 
 Output Path/Filename = /home/stud/casperc/bhome/Project1(DeepFit)/DeepFit-data-generation/DeepFitData_TE_20_lw10_2048p
 Output Loop Values = (1,1,1)  ( Loop 1 = 10, Loop 2 = 10, Loop3 Inactive )
 Output Comment
 ---------------------------------------------------------------------------
 
 
 Experiment Information
 ---------------------------------------------------------------------------
 --- Experiment 18b0168e-f5f0-4bd4-8d52-da93aba06c60 ---
 Name: SyntheticDataSetDeepFitTE20
 Public: False
 Created: 2024-10-08T09:55:07
 Comment (abbr.): 
 PI: Casper Cappelen
 b0: 127.740000
 Peak Search PPM low/high: -15.000000 / 15.000000
 Blend tol. PPM/phase: 0.001500 / 50.000000
 Pulse seq.: 43be13ae-de9a-40a1-9a2d-c872d8bjs100 (PRESS Ideal)
 0 User static parameters: 
 22 Metabolites: 2-hydroxyglutarate, GPC-pcholine2, NAAG-truncated, alanine, choline-trimethyl, creatine, ethanolamine, gaba, glucose-beta, glutamate, glutamine, glutathione-glutamate, glutathione-glycine-cysteine, glycine, lactate, myo-inositol, n-acetylaspartate, phosphocreatine, phosphorylcholine-trimethyl, phosphorylethanolamine, pyruvate, taurine
 22 Simulations: (not shown)
 
 Metabolite Formatting Information
 ---------------------------------------------------------------------------
 Name=2-hydroxyglutarate Abbr=2HG Scale=1.0 Shift=0.0 PPM Start=-3.1207465171441986 PPM End=12.528391440425866
 Name=GPC-pcholine2 Abbr=GPC Scale=1.0 Shift=0.0 PPM Start=-3.1207465171441986 PPM End=12.528391440425866
 Name=NAAG-truncated Abbr=NAAG Scale=1.0 Shift=0.0 PPM Start=-3.1207465171441986 PPM End=12.528391440425866
 Name=alanine Abbr=Ala Scale=1.0 Shift=0.0 PPM Start=-3.1207465171441986 PPM End=12.528391440425866
 Name=choline-trimethyl Abbr=Cho Scale=1.0 Shift=0.0 PPM Start=-3.1207465171441986 PPM End=12.528391440425866
 Name=creatine Abbr=Cr Scale=1.0 Shift=0.0 PPM Start=-3.1207465171441986 PPM End=12.528391440425866
 Name=ethanolamine Abbr=ETA Scale=1.0 Shift=0.0 PPM Start=-3.1207465171441986 PPM End=12.528391440425866
 Name=gaba Abbr=GABA Scale=1.0 Shift=0.0 PPM Start=-3.1207465171441986 PPM End=12.528391440425866
 Name=glucose-beta Abbr=Glc Scale=1.0 Shift=0.0 PPM Start=-3.1207465171441986 PPM End=12.528391440425866
 Name=glutamate Abbr=Glu Scale=1.0 Shift=0.0 PPM Start=-3.1207465171441986 PPM End=12.528391440425866
 Name=glutamine Abbr=Gln Scale=1.0 Shift=0.0 PPM Start=-3.1207465171441986 PPM End=12.528391440425866
 Name=glycine Abbr=Gly Scale=1.0 Shift=0.0 PPM Start=-3.1207465171441986 PPM End=12.528391440425866
 Name=lactate Abbr=Lac Scale=1.0 Shift=0.0 PPM Start=-3.1207465171441986 PPM End=12.528391440425866
 Name=myo-inositol Abbr=mI Scale=1.0 Shift=0.0 PPM Start=-3.1207465171441986 PPM End=12.528391440425866
 Name=n-acetylaspartate Abbr=NAA Scale=1.0 Shift=0.0 PPM Start=-3.1207465171441986 PPM End=12.528391440425866
 Name=phosphocreatine Abbr=PCr Scale=1.0 Shift=0.0 PPM Start=-3.1207465171441986 PPM End=12.528391440425866
 Name=phosphorylcholine-trimethyl Abbr=PCho Scale=1.0 Shift=0.0 PPM Start=-3.1207465171441986 PPM End=12.528391440425866
 Name=phosphorylethanolamine Abbr=PE Scale=1.0 Shift=0.0 PPM Start=-3.1207465171441986 PPM End=12.528391440425866
 Name=pyruvate Abbr=Pyr Scale=1.0 Shift=0.0 PPM Start=-3.1207465171441986 PPM End=12.528391440425866
 Name=taurine Abbr=Tau Scale=1.0 Shift=0.0 PPM Start=-3.1207465171441986 PPM End=12.528391440425866
 Name=glutathione-glutamate+glutathione-glycine-cysteine Abbr=GSH Scale=1.0 Shift=0.0 PPM Start=-3.1207565171441987 PPM End=12.528
   Mixture of [metab*scale] = glutathione-glutamate*1.000000 + glutathione-glycine-cysteine*1.000000
 
 ===========================================================================
 This LCModel format RAW file was created using the 
 Vespa-Simulation spectral simulation program using 
 the following settings and parameters 
 
 Sweep Width = 2000.0 Hz 
 Vector Size = 2048 points 
 Apodization = 10.0 Hz Gaussian broadening
 B0 Field    = 127.74 MHz 
 Ref Singlet = False
  
 $NMID ID='Cho'
 FMTDAT='(2E16.6)'
 VOLUME=1.0
 TRAMP=1.0
 $END
    8.995899E+00    3.002776E-09
    7.383200E+00    5.138094E+00
    3.124377E+00    8.432455E+00
   -2.251195E+00    8.702153E+00
   -6.814267E+00    5.853161E+00
   -8.929335E+00    9.111849E-01
   -7.841945E+00   -4.348331E+00
   -3.948260E+00   -8.039131E+00
    1.349477E+00   -8.841903E+00
    6.148823E+00   -6.476740E+00
    8.731635E+00   -1.800773E+00
    8.180117E+00    3.502909E+00
    4.703628E+00    7.532184E+00
   -4.407242E-01    8.849295E+00
   -5.403434E+00    6.994784E+00
   -8.408695E+00    2.647955E+00
   -8.390998E+00   -2.622403E+00
   -5.373446E+00   -6.924936E+00
   -4.535716E-01   -8.725882E+00
    4.596714E+00   -7.396672E+00
    7.970068E+00   -3.433457E+00
    8.471804E+00    1.728020E+00
    5.943599E+00    6.233413E+00
    1.312608E+00    8.477092E+00
   -3.748945E+00    7.675302E+00
   -7.428571E+00    4.140195E+00
   -8.423611E+00   -8.411337E-01
   -6.403081E+00   -5.475915E+00
   -2.117270E+00   -8.111953E+00
    2.880923E+00   -7.827532E+00
    6.799685E+00   -4.753966E+00
    8.251350E+00   -1.791453E-02
    6.744627E+00    4.672072E+00
    2.850618E+00    7.642650E+00
   -2.013661E+00    7.853953E+00
   -6.101088E+00    5.263615E+00
   -7.963432E+00    8.301218E-01
   -6.964701E+00   -3.842188E+00
   -3.498331E+00   -7.084048E+00
    1.166996E+00   -7.758993E+00
    5.351715E+00   -5.661689E+00
    7.571404E+00   -1.578582E+00
    7.063456E+00    3.006599E+00
    4.049198E+00    6.453082E+00
   -3.596022E-01    7.550377E+00
   -4.571344E+00    5.944183E+00
   -7.089308E+00    2.249373E+00
   -7.044666E+00   -2.184809E+00
   -4.495697E+00   -5.767852E+00
   -3.920369E-01   -7.238863E+00
    3.779392E+00   -6.110961E+00
    6.533178E+00   -2.831286E+00
    6.915376E+00    1.394969E+00
    4.833535E+00    5.047234E+00
    1.073915E+00    6.837674E+00
   -2.994751E+00    6.165129E+00
   -5.920343E+00    3.316421E+00
   -6.685557E+00   -6.529249E-01
   -5.061994E+00   -4.309964E+00
   -1.675242E+00   -6.361845E+00
    2.234834E+00   -6.113008E+00
    5.268582E+00   -3.700504E+00
    6.367440E+00   -2.764886E-02
    5.183604E+00    3.574106E+00
    2.187984E+00    5.827671E+00
   -1.515128E+00    5.963642E+00
   -4.595708E+00    3.982309E+00
   -5.975046E+00    6.358810E-01
   -5.203997E+00   -2.856242E+00
   -2.607734E+00   -5.251857E+00
    8.488503E-01   -5.728273E+00
    3.918833E+00   -4.163769E+00
    5.523492E+00   -1.164207E+00
    5.131365E+00    2.171047E+00
    2.932668E+00    4.651242E+00
   -2.464143E-01    5.419838E+00
   -3.253573E+00    4.249851E+00
   -5.028476E+00    1.607514E+00
   -4.975787E+00   -1.531416E+00
   -3.164372E+00   -4.041788E+00
   -2.846209E-01   -5.052295E+00
    2.614228E+00   -4.247574E+00
    4.505534E+00   -1.964121E+00
    4.749134E+00    9.472001E-01
    3.307004E+00    3.438238E+00
    7.390910E-01    4.640085E+00
   -2.012671E+00    4.166217E+00
   -3.969530E+00    2.235036E+00
   -4.464091E+00   -4.261897E-01
   -3.366675E+00   -2.854004E+00
   -1.115020E+00   -4.197572E+00
    1.458477E+00   -4.016433E+00
    3.434402E+00   -2.423379E+00
    4.133901E+00   -2.686795E-02
    3.351692E+00    2.300210E+00
    1.412934E+00    3.738489E+00
   -9.591420E-01    3.809660E+00
   -2.912432E+00    2.534724E+00
   -3.771684E+00    4.097297E-01
   -3.271386E+00   -1.786228E+00
   -1.635307E+00   -3.275675E+00
    5.193918E-01   -3.557910E+00
    2.414120E+00   -2.576264E+00
    3.390056E+00   -7.221759E-01
    3.136164E+00    1.318922E+00
    1.786957E+00    2.820454E+00
   -1.416457E-01    3.273086E+00
   -1.948239E+00    2.556215E+00
   -3.000701E+00    9.664101E-01
   -2.956779E+00   -9.029504E-01
   -1.873881E+00   -2.382726E+00
   -1.735438E-01   -2.966601E+00
    1.521321E+00   -2.483816E+00
    2.614048E+00   -1.146359E+00
    2.743856E+00    5.411020E-01
    1.903474E+00    1.970485E+00
    4.278911E-01    2.649066E+00
   -1.137892E+00    2.368630E+00
   -2.239171E+00    1.267130E+00
   -2.507711E+00   -2.339552E-01
   -1.883818E+00   -1.589892E+00
   -6.243862E-01   -2.330016E+00
    8.007626E-01   -2.220100E+00
    1.883477E+00   -1.335112E+00
    2.257894E+00   -1.960892E-02
    1.823204E+00    1.245457E+00
    7.675402E-01    2.017667E+00
   -5.107780E-01    2.047427E+00
   -1.552761E+00    1.357284E+00
   -2.002978E+00    2.220191E-01
   -1.730105E+00   -9.397629E-01
   -8.627755E-01   -1.718813E+00
    2.672551E-01   -1.859148E+00
    1.251173E+00   -1.340994E+00
    1.750433E+00   -3.768398E-01
    1.612537E+00    6.740663E-01
    9.159398E-01    1.438893E+00
   -6.832454E-02    1.662926E+00
   -9.814053E-01    1.293520E+00
   -1.506430E+00    4.887986E-01
   -1.478140E+00   -4.479153E-01
   -9.335146E-01   -1.181752E+00
   -8.890032E-02   -1.465455E+00
    7.447925E-01   -1.221911E+00
    1.275918E+00   -5.628657E-01
    1.333683E+00    2.599827E-01
    9.217452E-01    9.500321E-01
    2.083321E-01    1.272340E+00
   -5.412359E-01    1.132888E+00
   -1.062614E+00    6.043552E-01
   -1.185119E+00   -1.079867E-01
   -8.867784E-01   -7.451057E-01
   -2.941269E-01   -1.088075E+00
    3.698263E-01   -1.032399E+00
    8.689580E-01   -6.188225E-01
    1.037494E+00   -1.124843E-02
    8.343405E-01    5.673145E-01
    3.507550E-01    9.160938E-01
   -2.288159E-01    9.256944E-01
   -6.964149E-01    6.114673E-01
   -8.948597E-01    1.011448E-01
   -7.697366E-01   -4.159596E-01
   -3.829126E-01   -7.587480E-01
    1.156851E-01   -8.172719E-01
    5.455171E-01   -5.872138E-01
    7.603585E-01   -1.654099E-01
    6.975324E-01    2.897681E-01
    3.950079E-01    6.175155E-01
   -2.766720E-02    7.107573E-01
   -4.159107E-01    5.506448E-01
   -6.362258E-01    2.079573E-01
   -6.216473E-01   -1.869124E-01
   -3.912266E-01   -4.930699E-01
   -3.829708E-02   -6.089978E-01
