 Vespa-Simulation Mixed Metabolite Output
 This file was generated by Vespa-Simulation. You can learn about and download Vespa here:
https://github.com/vespa-mrs/vespa/tree/main/vespa

 
 Output Path/Filename = /home/stud/casperc/bhome/Project1(DeepFit)/DeepFit-data-generation/DeepFitData_TE_20_lw10_2048p
 Output Loop Values = (1,1,1)  ( Loop 1 = 10, Loop 2 = 10, Loop3 Inactive )
 Output Comment
 ---------------------------------------------------------------------------
 
 
 Experiment Information
 ---------------------------------------------------------------------------
 --- Experiment 18b0168e-f5f0-4bd4-8d52-da93aba06c60 ---
 Name: SyntheticDataSetDeepFitTE20
 Public: False
 Created: 2024-10-08T09:55:07
 Comment (abbr.): 
 PI: Casper Cappelen
 b0: 127.740000
 Peak Search PPM low/high: -15.000000 / 15.000000
 Blend tol. PPM/phase: 0.001500 / 50.000000
 Pulse seq.: 43be13ae-de9a-40a1-9a2d-c872d8bjs100 (PRESS Ideal)
 0 User static parameters: 
 22 Metabolites: 2-hydroxyglutarate, GPC-pcholine2, NAAG-truncated, alanine, choline-trimethyl, creatine, ethanolamine, gaba, glucose-beta, glutamate, glutamine, glutathione-glutamate, glutathione-glycine-cysteine, glycine, lactate, myo-inositol, n-acetylaspartate, phosphocreatine, phosphorylcholine-trimethyl, phosphorylethanolamine, pyruvate, taurine
 22 Simulations: (not shown)
 
 Metabolite Formatting Information
 ---------------------------------------------------------------------------
 Name=2-hydroxyglutarate Abbr=2HG Scale=1.0 Shift=0.0 PPM Start=-3.1207465171441986 PPM End=12.528391440425866
 Name=GPC-pcholine2 Abbr=GPC Scale=1.0 Shift=0.0 PPM Start=-3.1207465171441986 PPM End=12.528391440425866
 Name=NAAG-truncated Abbr=NAAG Scale=1.0 Shift=0.0 PPM Start=-3.1207465171441986 PPM End=12.528391440425866
 Name=alanine Abbr=Ala Scale=1.0 Shift=0.0 PPM Start=-3.1207465171441986 PPM End=12.528391440425866
 Name=choline-trimethyl Abbr=Cho Scale=1.0 Shift=0.0 PPM Start=-3.1207465171441986 PPM End=12.528391440425866
 Name=creatine Abbr=Cr Scale=1.0 Shift=0.0 PPM Start=-3.1207465171441986 PPM End=12.528391440425866
 Name=ethanolamine Abbr=ETA Scale=1.0 Shift=0.0 PPM Start=-3.1207465171441986 PPM End=12.528391440425866
 Name=gaba Abbr=GABA Scale=1.0 Shift=0.0 PPM Start=-3.1207465171441986 PPM End=12.528391440425866
 Name=glucose-beta Abbr=Glc Scale=1.0 Shift=0.0 PPM Start=-3.1207465171441986 PPM End=12.528391440425866
 Name=glutamate Abbr=Glu Scale=1.0 Shift=0.0 PPM Start=-3.1207465171441986 PPM End=12.528391440425866
 Name=glutamine Abbr=Gln Scale=1.0 Shift=0.0 PPM Start=-3.1207465171441986 PPM End=12.528391440425866
 Name=glycine Abbr=Gly Scale=1.0 Shift=0.0 PPM Start=-3.1207465171441986 PPM End=12.528391440425866
 Name=lactate Abbr=Lac Scale=1.0 Shift=0.0 PPM Start=-3.1207465171441986 PPM End=12.528391440425866
 Name=myo-inositol Abbr=mI Scale=1.0 Shift=0.0 PPM Start=-3.1207465171441986 PPM End=12.528391440425866
 Name=n-acetylaspartate Abbr=NAA Scale=1.0 Shift=0.0 PPM Start=-3.1207465171441986 PPM End=12.528391440425866
 Name=phosphocreatine Abbr=PCr Scale=1.0 Shift=0.0 PPM Start=-3.1207465171441986 PPM End=12.528391440425866
 Name=phosphorylcholine-trimethyl Abbr=PCho Scale=1.0 Shift=0.0 PPM Start=-3.1207465171441986 PPM End=12.528391440425866
 Name=phosphorylethanolamine Abbr=PE Scale=1.0 Shift=0.0 PPM Start=-3.1207465171441986 PPM End=12.528391440425866
 Name=pyruvate Abbr=Pyr Scale=1.0 Shift=0.0 PPM Start=-3.1207465171441986 PPM End=12.528391440425866
 Name=taurine Abbr=Tau Scale=1.0 Shift=0.0 PPM Start=-3.1207465171441986 PPM End=12.528391440425866
 Name=glutathione-glutamate+glutathione-glycine-cysteine Abbr=GSH Scale=1.0 Shift=0.0 PPM Start=-3.1207565171441987 PPM End=12.528
   Mixture of [metab*scale] = glutathione-glutamate*1.000000 + glutathione-glycine-cysteine*1.000000
 
 ===========================================================================
 This LCModel format RAW file was created using the 
 Vespa-Simulation spectral simulation program using 
 the following settings and parameters 
 
 Sweep Width = 2000.0 Hz 
 Vector Size = 2048 points 
 Apodization = 10.0 Hz Gaussian broadening
 B0 Field    = 127.74 MHz 
 Ref Singlet = False
  
 This data has been FFTd to be in the FREQUENCY domain
 
 $NMID ID='Cho'
 FMTDAT='(2E16.6)'
 VOLUME=1.0
 TRAMP=1.0
 $END
    4.497729E+00    1.434479E+01
    4.497724E+00    1.442231E+01
    4.497723E+00    1.450059E+01
    4.497722E+00    1.457965E+01
    4.497717E+00    1.465949E+01
    4.497703E+00    1.474012E+01
    4.497674E+00    1.482158E+01
    4.497631E+00    1.490387E+01
    4.497581E+00    1.498703E+01
    4.497533E+00    1.507108E+01
    4.497501E+00    1.515601E+01
    4.497502E+00    1.524186E+01
    4.497545E+00    1.532861E+01
    4.497636E+00    1.541626E+01
    4.497770E+00    1.550481E+01
    4.497933E+00    1.559425E+01
    4.498105E+00    1.568459E+01
    4.498264E+00    1.577585E+01
    4.498390E+00    1.586805E+01
    4.498470E+00    1.596123E+01
    4.498497E+00    1.605541E+01
    4.498472E+00    1.615064E+01
    4.498402E+00    1.624695E+01
    4.498298E+00    1.634437E+01
    4.498173E+00    1.644292E+01
    4.498040E+00    1.654262E+01
    4.497912E+00    1.664350E+01
    4.497797E+00    1.674556E+01
    4.497705E+00    1.684882E+01
    4.497641E+00    1.695330E+01
    4.497606E+00    1.705899E+01
    4.497597E+00    1.716592E+01
    4.497610E+00    1.727410E+01
    4.497639E+00    1.738355E+01
    4.497675E+00    1.749428E+01
    4.497714E+00    1.760633E+01
    4.497749E+00    1.771973E+01
    4.497778E+00    1.783449E+01
    4.497799E+00    1.795066E+01
    4.497811E+00    1.806825E+01
    4.497815E+00    1.818731E+01
    4.497812E+00    1.830786E+01
    4.497806E+00    1.842994E+01
    4.497802E+00    1.855357E+01
    4.497804E+00    1.867878E+01
    4.497817E+00    1.880561E+01
    4.497841E+00    1.893408E+01
    4.497877E+00    1.906422E+01
    4.497922E+00    1.919604E+01
    4.497970E+00    1.932960E+01
    4.498016E+00    1.946492E+01
    4.498057E+00    1.960204E+01
    4.498087E+00    1.974099E+01
    4.498106E+00    1.988183E+01
    4.498113E+00    2.002460E+01
    4.498107E+00    2.016933E+01
    4.498088E+00    2.031608E+01
    4.498059E+00    2.046489E+01
    4.498023E+00    2.061580E+01
    4.497987E+00    2.076888E+01
    4.497954E+00    2.092416E+01
    4.497932E+00    2.108168E+01
    4.497923E+00    2.124150E+01
    4.497927E+00    2.140365E+01
    4.497944E+00    2.156819E+01
    4.497968E+00    2.173516E+01
    4.497997E+00    2.190462E+01
    4.498026E+00    2.207663E+01
    4.498051E+00    2.225124E+01
    4.498071E+00    2.242852E+01
    4.498082E+00    2.260854E+01
    4.498084E+00    2.279136E+01
    4.498076E+00    2.297705E+01
    4.498059E+00    2.316569E+01
    4.498035E+00    2.335735E+01
    4.498010E+00    2.355211E+01
    4.497987E+00    2.375004E+01
    4.497973E+00    2.395122E+01
    4.497969E+00    2.415572E+01
    4.497978E+00    2.436363E+01
    4.497997E+00    2.457503E+01
    4.498022E+00    2.479001E+01
    4.498049E+00    2.500864E+01
    4.498073E+00    2.523104E+01
    4.498091E+00    2.545730E+01
    4.498097E+00    2.568753E+01
    4.498090E+00    2.592183E+01
    4.498069E+00    2.616033E+01
    4.498034E+00    2.640315E+01
    4.497987E+00    2.665041E+01
    4.497934E+00    2.690223E+01
    4.497883E+00    2.715876E+01
    4.497841E+00    2.742011E+01
    4.497815E+00    2.768643E+01
    4.497810E+00    2.795785E+01
    4.497825E+00    2.823450E+01
    4.497857E+00    2.851654E+01
    4.497895E+00    2.880412E+01
    4.497930E+00    2.909741E+01
    4.497952E+00    2.939658E+01
    4.497955E+00    2.970183E+01
    4.497939E+00    3.001336E+01
    4.497908E+00    3.033137E+01
    4.497871E+00    3.065608E+01
    4.497839E+00    3.098770E+01
    4.497821E+00    3.132645E+01
    4.497823E+00    3.167255E+01
    4.497845E+00    3.202624E+01
    4.497882E+00    3.238777E+01
    4.497926E+00    3.275739E+01
    4.497964E+00    3.313538E+01
    4.497990E+00    3.352204E+01
    4.497999E+00    3.391769E+01
    4.497992E+00    3.432265E+01
    4.497972E+00    3.473727E+01
    4.497948E+00    3.516190E+01
    4.497925E+00    3.559691E+01
    4.497910E+00    3.604268E+01
    4.497903E+00    3.649962E+01
    4.497906E+00    3.696815E+01
    4.497915E+00    3.744871E+01
    4.497927E+00    3.794178E+01
    4.497937E+00    3.844786E+01
    4.497943E+00    3.896747E+01
    4.497942E+00    3.950117E+01
    4.497934E+00    4.004956E+01
    4.497920E+00    4.061326E+01
    4.497902E+00    4.119291E+01
    4.497883E+00    4.178923E+01
    4.497866E+00    4.240293E+01
    4.497853E+00    4.303481E+01
    4.497846E+00    4.368567E+01
    4.497847E+00    4.435639E+01
    4.497855E+00    4.504791E+01
    4.497870E+00    4.576121E+01
    4.497890E+00    4.649735E+01
    4.497914E+00    4.725744E+01
    4.497939E+00    4.804268E+01
    4.497962E+00    4.885437E+01
    4.497981E+00    4.969386E+01
    4.497993E+00    5.056263E+01
    4.498000E+00    5.146225E+01
    4.498000E+00    5.239443E+01
    4.497996E+00    5.336096E+01
    4.497991E+00    5.436382E+01
    4.497987E+00    5.540511E+01
    4.497985E+00    5.648709E+01
    4.497986E+00    5.761222E+01
    4.497989E+00    5.878317E+01
    4.497995E+00    6.000282E+01
    4.498002E+00    6.127431E+01
    4.498010E+00    6.260106E+01
    4.498018E+00    6.398678E+01
    4.498025E+00    6.543555E+01
    4.498026E+00    6.695183E+01
    4.498021E+00    6.854051E+01
    4.498007E+00    7.020700E+01
    4.497986E+00    7.195723E+01
    4.497959E+00    7.379779E+01
    4.497929E+00    7.573595E+01
    4.497902E+00    7.777985E+01
    4.497878E+00    7.993851E+01
    4.497860E+00    8.222208E+01
    4.497848E+00    8.464193E+01
    4.497844E+00    8.721091E+01
    4.497847E+00    8.994357E+01
    4.497858E+00    9.285647E+01
    4.497876E+00    9.596853E+01
    4.497901E+00    9.930151E+01
    4.497928E+00    1.028806E+02
    4.497956E+00    1.067350E+02
    4.497981E+00    1.108992E+02
    4.498006E+00    1.154137E+02
