 Vespa-Simulation Mixed Metabolite Output
 This file was generated by Vespa-Simulation. You can learn about and download Vespa here:
https://github.com/vespa-mrs/vespa/tree/main/vespa

 
 Output Path/Filename = /home/stud/casperc/bhome/Project1(DeepFit)/DeepFit-data-generation/DeepFitData_TE_20_lw10_2048p
 Output Loop Values = (1,1,1)  ( Loop 1 = 10, Loop 2 = 10, Loop3 Inactive )
 Output Comment
 ---------------------------------------------------------------------------
 
 
 Experiment Information
 ---------------------------------------------------------------------------
 --- Experiment 18b0168e-f5f0-4bd4-8d52-da93aba06c60 ---
 Name: SyntheticDataSetDeepFitTE20
 Public: False
 Created: 2024-10-08T09:55:07
 Comment (abbr.): 
 PI: Casper Cappelen
 b0: 127.740000
 Peak Search PPM low/high: -15.000000 / 15.000000
 Blend tol. PPM/phase: 0.001500 / 50.000000
 Pulse seq.: 43be13ae-de9a-40a1-9a2d-c872d8bjs100 (PRESS Ideal)
 0 User static parameters: 
 22 Metabolites: 2-hydroxyglutarate, GPC-pcholine2, NAAG-truncated, alanine, choline-trimethyl, creatine, ethanolamine, gaba, glucose-beta, glutamate, glutamine, glutathione-glutamate, glutathione-glycine-cysteine, glycine, lactate, myo-inositol, n-acetylaspartate, phosphocreatine, phosphorylcholine-trimethyl, phosphorylethanolamine, pyruvate, taurine
 22 Simulations: (not shown)
 
 Metabolite Formatting Information
 ---------------------------------------------------------------------------
 Name=2-hydroxyglutarate Abbr=2HG Scale=1.0 Shift=0.0 PPM Start=-3.1207465171441986 PPM End=12.528391440425866
 Name=GPC-pcholine2 Abbr=GPC Scale=1.0 Shift=0.0 PPM Start=-3.1207465171441986 PPM End=12.528391440425866
 Name=NAAG-truncated Abbr=NAAG Scale=1.0 Shift=0.0 PPM Start=-3.1207465171441986 PPM End=12.528391440425866
 Name=alanine Abbr=Ala Scale=1.0 Shift=0.0 PPM Start=-3.1207465171441986 PPM End=12.528391440425866
 Name=choline-trimethyl Abbr=Cho Scale=1.0 Shift=0.0 PPM Start=-3.1207465171441986 PPM End=12.528391440425866
 Name=creatine Abbr=Cr Scale=1.0 Shift=0.0 PPM Start=-3.1207465171441986 PPM End=12.528391440425866
 Name=ethanolamine Abbr=ETA Scale=1.0 Shift=0.0 PPM Start=-3.1207465171441986 PPM End=12.528391440425866
 Name=gaba Abbr=GABA Scale=1.0 Shift=0.0 PPM Start=-3.1207465171441986 PPM End=12.528391440425866
 Name=glucose-beta Abbr=Glc Scale=1.0 Shift=0.0 PPM Start=-3.1207465171441986 PPM End=12.528391440425866
 Name=glutamate Abbr=Glu Scale=1.0 Shift=0.0 PPM Start=-3.1207465171441986 PPM End=12.528391440425866
 Name=glutamine Abbr=Gln Scale=1.0 Shift=0.0 PPM Start=-3.1207465171441986 PPM End=12.528391440425866
 Name=glycine Abbr=Gly Scale=1.0 Shift=0.0 PPM Start=-3.1207465171441986 PPM End=12.528391440425866
 Name=lactate Abbr=Lac Scale=1.0 Shift=0.0 PPM Start=-3.1207465171441986 PPM End=12.528391440425866
 Name=myo-inositol Abbr=mI Scale=1.0 Shift=0.0 PPM Start=-3.1207465171441986 PPM End=12.528391440425866
 Name=n-acetylaspartate Abbr=NAA Scale=1.0 Shift=0.0 PPM Start=-3.1207465171441986 PPM End=12.528391440425866
 Name=phosphocreatine Abbr=PCr Scale=1.0 Shift=0.0 PPM Start=-3.1207465171441986 PPM End=12.528391440425866
 Name=phosphorylcholine-trimethyl Abbr=PCho Scale=1.0 Shift=0.0 PPM Start=-3.1207465171441986 PPM End=12.528391440425866
 Name=phosphorylethanolamine Abbr=PE Scale=1.0 Shift=0.0 PPM Start=-3.1207465171441986 PPM End=12.528391440425866
 Name=pyruvate Abbr=Pyr Scale=1.0 Shift=0.0 PPM Start=-3.1207465171441986 PPM End=12.528391440425866
 Name=taurine Abbr=Tau Scale=1.0 Shift=0.0 PPM Start=-3.1207465171441986 PPM End=12.528391440425866
 Name=glutathione-glutamate+glutathione-glycine-cysteine Abbr=GSH Scale=1.0 Shift=0.0 PPM Start=-3.1207565171441987 PPM End=12.528
   Mixture of [metab*scale] = glutathione-glutamate*1.000000 + glutathione-glycine-cysteine*1.000000
 
 ===========================================================================
 This LCModel format RAW file was created using the 
 Vespa-Simulation spectral simulation program using 
 the following settings and parameters 
 
 Sweep Width = 2000.0 Hz 
 Vector Size = 2048 points 
 Apodization = 10.0 Hz Gaussian broadening
 B0 Field    = 127.74 MHz 
 Ref Singlet = False
  
 $NMID ID='Cr'
 FMTDAT='(2E16.6)'
 VOLUME=1.0
 TRAMP=1.0
 $END
    6.000000E+00    1.049508E-16
    4.958919E+00    1.782463E+00
    2.297940E+00    3.102231E+00
   -8.190115E-01    3.616981E+00
   -3.083616E+00    3.209832E+00
   -3.657778E+00    2.049855E+00
   -2.544264E+00    5.687914E-01
   -5.392552E-01   -6.696392E-01
    1.195538E+00   -1.185736E+00
    1.717413E+00   -8.060766E-01
    7.521145E-01    2.176701E-01
   -1.203558E+00    1.277832E+00
   -3.156589E+00    1.670356E+00
   -4.115085E+00    9.443403E-01
   -3.555499E+00   -8.264780E-01
   -1.640465E+00   -3.004041E+00
    8.946435E-01   -4.630640E+00
    3.103215E+00   -4.866158E+00
    4.246144E+00   -3.414131E+00
    4.071979E+00   -7.169463E-01
    2.852056E+00    2.198465E+00
    1.192082E+00    4.172679E+00
   -2.617000E-01    4.454131E+00
   -1.077682E+00    3.061452E+00
   -1.157843E+00    7.794311E-01
   -7.037894E-01   -1.220631E+00
   -8.142312E-02   -1.954917E+00
    3.388767E-01   -1.111508E+00
    3.069442E-01    7.981088E-01
   -2.411226E-01    2.698102E+00
   -1.171855E+00    3.488957E+00
   -2.188097E+00    2.599159E+00
   -2.904712E+00    2.735582E-01
   -2.964321E+00   -2.541156E+00
   -2.174917E+00   -4.650967E+00
   -6.238548E-01   -5.178129E+00
    1.293752E+00   -3.957860E+00
    2.975160E+00   -1.582564E+00
    3.828228E+00    9.098419E-01
    3.529036E+00    2.535382E+00
    2.197479E+00    2.800816E+00
    3.875555E-01    1.876919E+00
   -1.131559E+00    4.474942E-01
   -1.721806E+00   -6.642478E-01
   -1.188375E+00   -8.946656E-01
    1.039926E-01   -1.746642E-01
    1.387210E+00    1.090341E+00
    1.860183E+00    2.254931E+00
    1.098540E+00    2.747823E+00
   -7.028632E-01    2.312912E+00
   -2.788474E+00    1.082375E+00
   -4.186105E+00   -5.215089E-01
   -4.175527E+00   -1.982949E+00
   -2.649731E+00   -2.887500E+00
   -1.854050E-01   -3.042009E+00
    2.217626E+00   -2.495305E+00
    3.603440E+00   -1.482638E+00
    3.503100E+00   -3.334704E-01
    2.137717E+00    6.250236E-01
    2.851425E-01    1.152007E+00
   -1.116190E+00    1.157303E+00
   -1.425372E+00    7.338016E-01
   -5.926560E-01    1.387099E-01
    8.477395E-01   -2.894801E-01
    2.068809E+00   -2.657645E-01
    2.369897E+00    3.013254E-01
    1.513364E+00    1.232961E+00
   -1.792601E-01    2.120154E+00
   -2.002481E+00    2.486920E+00
   -3.210961E+00    2.015079E+00
   -3.357081E+00    7.250665E-01
   -2.463616E+00   -9.858479E-01
   -9.685892E-01   -2.487499E+00
    5.090329E-01   -3.189886E+00
    1.453436E+00   -2.819740E+00
    1.651877E+00   -1.562965E+00
    1.232530E+00    8.000722E-03
    5.493696E-01    1.196976E+00
   -8.945395E-03    1.513379E+00
   -1.886973E-01    9.069739E-01
    4.870658E-02   -2.119218E-01
    5.501438E-01   -1.179992E+00
    1.063867E+00   -1.414673E+00
    1.348488E+00   -7.081854E-01
    1.254848E+00    6.654075E-01
    7.624855E-01    2.082195E+00
   -2.408923E-02    2.872622E+00
   -9.071259E-01    2.644969E+00
   -1.646309E+00    1.468980E+00
   -2.022366E+00   -1.661007E-01
   -1.906811E+00   -1.591345E+00
   -1.317567E+00   -2.271842E+00
   -4.334782E-01   -2.040296E+00
    4.520545E-01   -1.143043E+00
    1.035703E+00   -8.984556E-02
    1.130405E+00    6.072479E-01
    7.559328E-01    6.721846E-01
    1.431718E-01    1.697059E-01
   -3.629240E-01   -5.608111E-01
   -4.651163E-01   -1.094145E+00
   -6.542942E-02   -1.128665E+00
    6.716724E-01   -6.161661E-01
    1.384121E+00    2.389618E-01
    1.681480E+00    1.094632E+00
    1.339208E+00    1.632051E+00
    4.212202E-01    1.684657E+00
   -7.349095E-01    1.283375E+00
   -1.667197E+00    6.134674E-01
   -2.003463E+00   -8.122496E-02
   -1.635153E+00   -5.964151E-01
   -7.650261E-01   -8.286685E-01
    1.944303E-01   -7.859365E-01
    8.209399E-01   -5.592920E-01
    8.811712E-01   -2.770294E-01
    4.313445E-01   -6.023591E-02
   -2.263826E-01    1.048261E-02
   -7.048537E-01   -8.441066E-02
   -7.267296E-01   -2.971134E-01
   -2.563206E-01   -5.237398E-01
    4.926204E-01   -6.365697E-01
    1.170302E+00   -5.330685E-01
    1.463619E+00   -1.859526E-01
    1.241078E+00    3.288447E-01
    6.029705E-01    8.465707E-01
   -1.799378E-01    1.172865E+00
   -8.009404E-01    1.167113E+00
   -1.054965E+00    8.121696E-01
   -9.155325E-01    2.337821E-01
   -5.221073E-01   -3.460672E-01
   -9.493640E-02   -7.050365E-01
    1.741790E-01   -7.219054E-01
    2.014629E-01   -4.335342E-01
    3.010886E-02   -1.727246E-02
   -2.104512E-01    2.954497E-01
   -3.762903E-01    3.330119E-01
   -3.743566E-01    6.875393E-02
   -1.942878E-01   -3.654438E-01
    9.980293E-02   -7.443921E-01
    4.053846E-01   -8.612667E-01
    6.239453E-01   -6.299828E-01
    6.928637E-01   -1.278547E-01
    5.986703E-01    4.417473E-01
    3.737511E-01    8.466818E-01
    8.273971E-02    9.342436E-01
   -1.958882E-01    6.975602E-01
   -3.902746E-01    2.700175E-01
   -4.547419E-01   -1.456773E-01
   -3.851609E-01   -3.760118E-01
   -2.230057E-01   -3.537821E-01
   -4.312972E-02   -1.386316E-01
    7.412649E-02    1.241717E-01
    7.732160E-02    2.816768E-01
   -3.054497E-02    2.474199E-01
   -1.892594E-01    3.679600E-02
   -3.063288E-01   -2.491169E-01
   -3.003965E-01   -4.783045E-01
   -1.432095E-01   -5.511436E-01
    1.212880E-01   -4.418687E-01
    3.922773E-01   -2.018593E-01
    5.565016E-01    7.153779E-02
    5.412484E-01    2.817290E-01
    3.498711E-01    3.715589E-01
    6.179414E-02    3.388697E-01
   -2.038678E-01    2.262990E-01
   -3.435678E-01    9.509027E-02
   -3.164798E-01   -2.556459E-03
   -1.606594E-01   -4.089868E-02
    2.908055E-02   -2.364604E-02
    1.496874E-01    2.462069E-02
    1.402945E-01    7.172565E-02
    9.802697E-03    9.008681E-02
   -1.708512E-01    6.468372E-02
   -3.062900E-01   -3.505745E-03
   -3.243123E-01   -9.792182E-02
