 Vespa-Simulation Mixed Metabolite Output
 This file was generated by Vespa-Simulation. You can learn about and download Vespa here:
https://github.com/vespa-mrs/vespa/tree/main/vespa

 
 Output Path/Filename = /home/stud/casperc/bhome/Project1(DeepFit)/DeepFit-data-generation/DeepFitData_TE_20_lw10_2048p
 Output Loop Values = (1,1,1)  ( Loop 1 = 10, Loop 2 = 10, Loop3 Inactive )
 Output Comment
 ---------------------------------------------------------------------------
 
 
 Experiment Information
 ---------------------------------------------------------------------------
 --- Experiment 18b0168e-f5f0-4bd4-8d52-da93aba06c60 ---
 Name: SyntheticDataSetDeepFitTE20
 Public: False
 Created: 2024-10-08T09:55:07
 Comment (abbr.): 
 PI: Casper Cappelen
 b0: 127.740000
 Peak Search PPM low/high: -15.000000 / 15.000000
 Blend tol. PPM/phase: 0.001500 / 50.000000
 Pulse seq.: 43be13ae-de9a-40a1-9a2d-c872d8bjs100 (PRESS Ideal)
 0 User static parameters: 
 22 Metabolites: 2-hydroxyglutarate, GPC-pcholine2, NAAG-truncated, alanine, choline-trimethyl, creatine, ethanolamine, gaba, glucose-beta, glutamate, glutamine, glutathione-glutamate, glutathione-glycine-cysteine, glycine, lactate, myo-inositol, n-acetylaspartate, phosphocreatine, phosphorylcholine-trimethyl, phosphorylethanolamine, pyruvate, taurine
 22 Simulations: (not shown)
 
 Metabolite Formatting Information
 ---------------------------------------------------------------------------
 Name=2-hydroxyglutarate Abbr=2HG Scale=1.0 Shift=0.0 PPM Start=-3.1207465171441986 PPM End=12.528391440425866
 Name=GPC-pcholine2 Abbr=GPC Scale=1.0 Shift=0.0 PPM Start=-3.1207465171441986 PPM End=12.528391440425866
 Name=NAAG-truncated Abbr=NAAG Scale=1.0 Shift=0.0 PPM Start=-3.1207465171441986 PPM End=12.528391440425866
 Name=alanine Abbr=Ala Scale=1.0 Shift=0.0 PPM Start=-3.1207465171441986 PPM End=12.528391440425866
 Name=choline-trimethyl Abbr=Cho Scale=1.0 Shift=0.0 PPM Start=-3.1207465171441986 PPM End=12.528391440425866
 Name=creatine Abbr=Cr Scale=1.0 Shift=0.0 PPM Start=-3.1207465171441986 PPM End=12.528391440425866
 Name=ethanolamine Abbr=ETA Scale=1.0 Shift=0.0 PPM Start=-3.1207465171441986 PPM End=12.528391440425866
 Name=gaba Abbr=GABA Scale=1.0 Shift=0.0 PPM Start=-3.1207465171441986 PPM End=12.528391440425866
 Name=glucose-beta Abbr=Glc Scale=1.0 Shift=0.0 PPM Start=-3.1207465171441986 PPM End=12.528391440425866
 Name=glutamate Abbr=Glu Scale=1.0 Shift=0.0 PPM Start=-3.1207465171441986 PPM End=12.528391440425866
 Name=glutamine Abbr=Gln Scale=1.0 Shift=0.0 PPM Start=-3.1207465171441986 PPM End=12.528391440425866
 Name=glycine Abbr=Gly Scale=1.0 Shift=0.0 PPM Start=-3.1207465171441986 PPM End=12.528391440425866
 Name=lactate Abbr=Lac Scale=1.0 Shift=0.0 PPM Start=-3.1207465171441986 PPM End=12.528391440425866
 Name=myo-inositol Abbr=mI Scale=1.0 Shift=0.0 PPM Start=-3.1207465171441986 PPM End=12.528391440425866
 Name=n-acetylaspartate Abbr=NAA Scale=1.0 Shift=0.0 PPM Start=-3.1207465171441986 PPM End=12.528391440425866
 Name=phosphocreatine Abbr=PCr Scale=1.0 Shift=0.0 PPM Start=-3.1207465171441986 PPM End=12.528391440425866
 Name=phosphorylcholine-trimethyl Abbr=PCho Scale=1.0 Shift=0.0 PPM Start=-3.1207465171441986 PPM End=12.528391440425866
 Name=phosphorylethanolamine Abbr=PE Scale=1.0 Shift=0.0 PPM Start=-3.1207465171441986 PPM End=12.528391440425866
 Name=pyruvate Abbr=Pyr Scale=1.0 Shift=0.0 PPM Start=-3.1207465171441986 PPM End=12.528391440425866
 Name=taurine Abbr=Tau Scale=1.0 Shift=0.0 PPM Start=-3.1207465171441986 PPM End=12.528391440425866
 Name=glutathione-glutamate+glutathione-glycine-cysteine Abbr=GSH Scale=1.0 Shift=0.0 PPM Start=-3.1207565171441987 PPM End=12.528
   Mixture of [metab*scale] = glutathione-glutamate*1.000000 + glutathione-glycine-cysteine*1.000000
 
 ===========================================================================
 This LCModel format RAW file was created using the 
 Vespa-Simulation spectral simulation program using 
 the following settings and parameters 
 
 Sweep Width = 2000.0 Hz 
 Vector Size = 2048 points 
 Apodization = 10.0 Hz Gaussian broadening
 B0 Field    = 127.74 MHz 
 Ref Singlet = False
  
 This data has been FFTd to be in the FREQUENCY domain
 
 $NMID ID='Cr'
 FMTDAT='(2E16.6)'
 VOLUME=1.0
 TRAMP=1.0
 $END
    3.000036E+00    9.378991E+00
    3.000018E+00    9.468558E+00
    3.000007E+00    9.559522E+00
    3.000002E+00    9.651920E+00
    3.000001E+00    9.745793E+00
    3.000003E+00    9.841185E+00
    3.000006E+00    9.938142E+00
    3.000009E+00    1.003671E+01
    3.000012E+00    1.013694E+01
    3.000015E+00    1.023889E+01
    3.000017E+00    1.034260E+01
    3.000015E+00    1.044813E+01
    3.000009E+00    1.055555E+01
    2.999997E+00    1.066491E+01
    2.999980E+00    1.077629E+01
    2.999961E+00    1.088975E+01
    2.999942E+00    1.100535E+01
    2.999927E+00    1.112319E+01
    2.999920E+00    1.124331E+01
    2.999922E+00    1.136581E+01
    2.999930E+00    1.149076E+01
    2.999944E+00    1.161824E+01
    2.999957E+00    1.174835E+01
    2.999965E+00    1.188117E+01
    2.999964E+00    1.201682E+01
    2.999951E+00    1.215540E+01
    2.999927E+00    1.229704E+01
    2.999893E+00    1.244185E+01
    2.999855E+00    1.258995E+01
    2.999821E+00    1.274149E+01
    2.999797E+00    1.289660E+01
    2.999789E+00    1.305542E+01
    2.999802E+00    1.321808E+01
    2.999835E+00    1.338475E+01
    2.999885E+00    1.355559E+01
    2.999946E+00    1.373077E+01
    3.000011E+00    1.391048E+01
    3.000072E+00    1.409493E+01
    3.000122E+00    1.428433E+01
    3.000157E+00    1.447891E+01
    3.000173E+00    1.467893E+01
    3.000172E+00    1.488466E+01
    3.000155E+00    1.509637E+01
    3.000126E+00    1.531436E+01
    3.000089E+00    1.553895E+01
    3.000049E+00    1.577049E+01
    3.000009E+00    1.600932E+01
    2.999974E+00    1.625585E+01
    2.999944E+00    1.651048E+01
    2.999923E+00    1.677366E+01
    2.999911E+00    1.704586E+01
    2.999908E+00    1.732761E+01
    2.999910E+00    1.761947E+01
    2.999918E+00    1.792205E+01
    2.999927E+00    1.823601E+01
    2.999937E+00    1.856206E+01
    2.999947E+00    1.890099E+01
    2.999955E+00    1.925365E+01
    2.999960E+00    1.962098E+01
    2.999963E+00    2.000399E+01
    2.999962E+00    2.040381E+01
    2.999958E+00    2.082167E+01
    2.999952E+00    2.125894E+01
    2.999947E+00    2.171711E+01
    2.999942E+00    2.219785E+01
    2.999942E+00    2.270302E+01
    2.999946E+00    2.323468E+01
    2.999955E+00    2.379516E+01
    2.999968E+00    2.438706E+01
    2.999984E+00    2.501331E+01
    3.000000E+00    2.567725E+01
    3.000017E+00    2.638268E+01
    3.000032E+00    2.713394E+01
    3.000045E+00    2.793602E+01
    3.000055E+00    2.879470E+01
    3.000061E+00    2.971674E+01
    3.000064E+00    3.071002E+01
    3.000063E+00    3.178391E+01
    3.000065E+00    3.294960E+01
    3.000089E+00    3.422061E+01
    3.000196E+00    3.561351E+01
    3.000564E+00    3.714896E+01
    3.001704E+00    3.885316E+01
    3.005002E+00    4.076008E+01
    3.013991E+00    4.291468E+01
    3.037156E+00    4.537744E+01
    3.093609E+00    4.823015E+01
    3.223687E+00    5.158233E+01
    3.506968E+00    5.557591E+01
    4.089740E+00    6.038333E+01
    5.221579E+00    6.619123E+01
    7.295309E+00    7.315971E+01
    1.087624E+01    8.134811E+01
    1.669731E+01    9.060622E+01
    2.559134E+01    1.004455E+02
    3.833777E+01    1.099269E+02
    5.542360E+01    1.176219E+02
    7.675727E+01    1.217082E+02
    1.014177E+02    1.202367E+02
    1.275465E+02    1.115525E+02
    1.524790E+02    9.478192E+01
    1.731450E+02    7.023544E+01
    1.866743E+02    3.957124E+01
    1.910476E+02    5.617715E+00
    1.855903E+02   -2.813369E+01
    1.711425E+02   -5.823264E+01
    1.498479E+02   -8.196164E+01
    1.246321E+02   -9.781091E+01
    9.854745E+01   -1.056160E+02
    7.418363E+01   -1.063608E+02
    5.329576E+01   -1.017572E+02
    3.670333E+01   -9.375866E+01
    2.441926E+01   -8.415351E+01
    1.591000E+01   -7.431730E+01
    1.037968E+01   -6.513488E+01
    7.000728E+00   -5.705070E+01
    5.056982E+00   -5.018527E+01
    4.003029E+00   -4.446313E+01
    3.463865E+00   -3.971820E+01
    3.203457E+00   -3.576389E+01
    3.084637E+00   -3.243068E+01
    3.033389E+00   -2.958030E+01
    3.012482E+00   -2.710656E+01
    3.004405E+00   -2.493031E+01
    3.001446E+00   -2.299304E+01
    3.000416E+00   -2.125116E+01
    3.000078E+00   -1.967162E+01
    2.999979E+00   -1.822890E+01
    2.999963E+00   -1.690278E+01
    2.999977E+00   -1.567703E+01
    3.000001E+00   -1.453833E+01
    3.000026E+00   -1.347564E+01
    3.000046E+00   -1.247971E+01
    3.000059E+00   -1.154268E+01
    3.000064E+00   -1.065782E+01
    3.000061E+00   -9.819347E+00
    3.000053E+00   -9.022238E+00
    3.000042E+00   -8.262101E+00
    3.000031E+00   -7.535076E+00
    3.000021E+00   -6.837754E+00
    3.000011E+00   -6.167098E+00
    3.000003E+00   -5.520397E+00
    2.999996E+00   -4.895211E+00
    2.999989E+00   -4.289338E+00
    2.999984E+00   -3.700775E+00
    2.999978E+00   -3.127696E+00
    2.999974E+00   -2.568426E+00
    2.999970E+00   -2.021421E+00
    2.999967E+00   -1.485248E+00
    2.999965E+00   -9.585723E-01
    2.999963E+00   -4.401443E-01
    2.999962E+00    7.121460E-02
    2.999962E+00    5.766208E-01
    2.999963E+00    1.077138E+00
    2.999965E+00    1.573787E+00
    2.999968E+00    2.067552E+00
    2.999972E+00    2.559387E+00
    2.999977E+00    3.050228E+00
    2.999982E+00    3.540993E+00
    2.999988E+00    4.032589E+00
    2.999995E+00    4.525923E+00
    3.000001E+00    5.021902E+00
    3.000008E+00    5.521440E+00
    3.000015E+00    6.025467E+00
    3.000022E+00    6.534931E+00
    3.000028E+00    7.050806E+00
    3.000035E+00    7.574100E+00
    3.000040E+00    8.105858E+00
    3.000044E+00    8.647172E+00
    3.000046E+00    9.199191E+00
    3.000046E+00    9.763126E+00
    3.000044E+00    1.034026E+01
    3.000041E+00    1.093196E+01
