 Vespa-Simulation Mixed Metabolite Output
 This file was generated by Vespa-Simulation. You can learn about and download Vespa here:
https://github.com/vespa-mrs/vespa/tree/main/vespa

 
 Output Path/Filename = /home/stud/casperc/bhome/Project1(DeepFit)/DeepFit-data-generation/DeepFitData_TE_20_lw10_2048p
 Output Loop Values = (1,1,1)  ( Loop 1 = 10, Loop 2 = 10, Loop3 Inactive )
 Output Comment
 ---------------------------------------------------------------------------
 
 
 Experiment Information
 ---------------------------------------------------------------------------
 --- Experiment 18b0168e-f5f0-4bd4-8d52-da93aba06c60 ---
 Name: SyntheticDataSetDeepFitTE20
 Public: False
 Created: 2024-10-08T09:55:07
 Comment (abbr.): 
 PI: Casper Cappelen
 b0: 127.740000
 Peak Search PPM low/high: -15.000000 / 15.000000
 Blend tol. PPM/phase: 0.001500 / 50.000000
 Pulse seq.: 43be13ae-de9a-40a1-9a2d-c872d8bjs100 (PRESS Ideal)
 0 User static parameters: 
 22 Metabolites: 2-hydroxyglutarate, GPC-pcholine2, NAAG-truncated, alanine, choline-trimethyl, creatine, ethanolamine, gaba, glucose-beta, glutamate, glutamine, glutathione-glutamate, glutathione-glycine-cysteine, glycine, lactate, myo-inositol, n-acetylaspartate, phosphocreatine, phosphorylcholine-trimethyl, phosphorylethanolamine, pyruvate, taurine
 22 Simulations: (not shown)
 
 Metabolite Formatting Information
 ---------------------------------------------------------------------------
 Name=2-hydroxyglutarate Abbr=2HG Scale=1.0 Shift=0.0 PPM Start=-3.1207465171441986 PPM End=12.528391440425866
 Name=GPC-pcholine2 Abbr=GPC Scale=1.0 Shift=0.0 PPM Start=-3.1207465171441986 PPM End=12.528391440425866
 Name=NAAG-truncated Abbr=NAAG Scale=1.0 Shift=0.0 PPM Start=-3.1207465171441986 PPM End=12.528391440425866
 Name=alanine Abbr=Ala Scale=1.0 Shift=0.0 PPM Start=-3.1207465171441986 PPM End=12.528391440425866
 Name=choline-trimethyl Abbr=Cho Scale=1.0 Shift=0.0 PPM Start=-3.1207465171441986 PPM End=12.528391440425866
 Name=creatine Abbr=Cr Scale=1.0 Shift=0.0 PPM Start=-3.1207465171441986 PPM End=12.528391440425866
 Name=ethanolamine Abbr=ETA Scale=1.0 Shift=0.0 PPM Start=-3.1207465171441986 PPM End=12.528391440425866
 Name=gaba Abbr=GABA Scale=1.0 Shift=0.0 PPM Start=-3.1207465171441986 PPM End=12.528391440425866
 Name=glucose-beta Abbr=Glc Scale=1.0 Shift=0.0 PPM Start=-3.1207465171441986 PPM End=12.528391440425866
 Name=glutamate Abbr=Glu Scale=1.0 Shift=0.0 PPM Start=-3.1207465171441986 PPM End=12.528391440425866
 Name=glutamine Abbr=Gln Scale=1.0 Shift=0.0 PPM Start=-3.1207465171441986 PPM End=12.528391440425866
 Name=glycine Abbr=Gly Scale=1.0 Shift=0.0 PPM Start=-3.1207465171441986 PPM End=12.528391440425866
 Name=lactate Abbr=Lac Scale=1.0 Shift=0.0 PPM Start=-3.1207465171441986 PPM End=12.528391440425866
 Name=myo-inositol Abbr=mI Scale=1.0 Shift=0.0 PPM Start=-3.1207465171441986 PPM End=12.528391440425866
 Name=n-acetylaspartate Abbr=NAA Scale=1.0 Shift=0.0 PPM Start=-3.1207465171441986 PPM End=12.528391440425866
 Name=phosphocreatine Abbr=PCr Scale=1.0 Shift=0.0 PPM Start=-3.1207465171441986 PPM End=12.528391440425866
 Name=phosphorylcholine-trimethyl Abbr=PCho Scale=1.0 Shift=0.0 PPM Start=-3.1207465171441986 PPM End=12.528391440425866
 Name=phosphorylethanolamine Abbr=PE Scale=1.0 Shift=0.0 PPM Start=-3.1207465171441986 PPM End=12.528391440425866
 Name=pyruvate Abbr=Pyr Scale=1.0 Shift=0.0 PPM Start=-3.1207465171441986 PPM End=12.528391440425866
 Name=taurine Abbr=Tau Scale=1.0 Shift=0.0 PPM Start=-3.1207465171441986 PPM End=12.528391440425866
 Name=glutathione-glutamate+glutathione-glycine-cysteine Abbr=GSH Scale=1.0 Shift=0.0 PPM Start=-3.1207565171441987 PPM End=12.528
   Mixture of [metab*scale] = glutathione-glutamate*1.000000 + glutathione-glycine-cysteine*1.000000
 
 ===========================================================================
 This LCModel format RAW file was created using the 
 Vespa-Simulation spectral simulation program using 
 the following settings and parameters 
 
 Sweep Width = 2000.0 Hz 
 Vector Size = 2048 points 
 Apodization = 10.0 Hz Gaussian broadening
 B0 Field    = 127.74 MHz 
 Ref Singlet = False
  
 $NMID ID='ETA'
 FMTDAT='(2E16.6)'
 VOLUME=1.0
 TRAMP=1.0
 $END
    3.667983E+00   -8.125016E-05
    3.214204E+00    1.708490E+00
    1.983528E+00    2.939206E+00
    3.552880E-01    3.369268E+00
   -1.186180E+00    2.939657E+00
   -2.218022E+00    1.863202E+00
   -2.517600E+00    5.368123E-01
   -2.123921E+00   -6.073647E-01
   -1.302161E+00   -1.255497E+00
   -4.280340E-01   -1.313652E+00
    1.618002E-01   -9.218301E-01
    2.956368E-01   -3.787310E-01
    2.211431E-02   -9.379116E-03
   -4.237796E-01   -2.848236E-02
   -7.281756E-01   -4.527238E-01
   -6.355110E-01   -1.095152E+00
   -6.102382E-02   -1.642571E+00
    8.654076E-01   -1.784699E+00
    1.841188E+00   -1.344382E+00
    2.502479E+00   -3.579684E-01
    2.562419E+00    9.252675E-01
    1.923617E+00    2.125103E+00
    7.221371E-01    2.863047E+00
   -7.134774E-01    2.896347E+00
   -1.972810E+00    2.203876E+00
   -2.702822E+00    9.929134E-01
   -2.724857E+00   -3.744225E-01
   -2.087780E+00   -1.506853E+00
   -1.040014E+00   -2.115103E+00
    6.651982E-02   -2.101325E+00
    9.032760E-01   -1.576457E+00
    1.275281E+00   -8.026940E-01
    1.175789E+00   -8.597254E-02
    7.682590E-01    3.393516E-01
    3.065343E-01    3.905730E-01
    2.667479E-02    1.531917E-01
    5.291112E-02   -1.686213E-01
    3.531924E-01   -3.455646E-01
    7.592209E-01   -2.225341E-01
    1.040892E+00    2.151372E-01
    1.004347E+00    8.333137E-01
    5.748963E-01    1.400677E+00
   -1.671067E-01    1.678935E+00
   -1.010806E+00    1.516614E+00
   -1.689369E+00    9.103666E-01
   -1.976265E+00    1.107737E-02
   -1.766608E+00   -9.265535E-01
   -1.114247E+00   -1.631813E+00
   -2.117859E-01   -1.909840E+00
    6.773221E-01   -1.704590E+00
    1.309014E+00   -1.111292E+00
    1.537504E+00   -3.360625E-01
    1.355886E+00    3.804294E-01
    8.857371E-01    8.457478E-01
    3.228634E-01    9.754342E-01
   -1.383609E-01    8.093973E-01
   -3.733385E-01    4.825235E-01
   -3.636091E-01    1.634650E-01
   -1.905132E-01   -1.332184E-02
    8.484245E-03    3.636339E-03
    1.014683E-01    1.702151E-01
    1.704898E-02    3.726334E-01
   -2.281252E-01    4.795832E-01
   -5.384909E-01    3.989315E-01
   -7.799363E-01    1.167870E-01
   -8.345966E-01   -2.954198E-01
   -6.483461E-01   -7.075192E-01
   -2.531824E-01   -9.792418E-01
    2.431549E-01   -1.012245E+00
    6.953572E-01   -7.857139E-01
    9.715565E-01   -3.630219E-01
    9.977390E-01    1.316203E-01
    7.803273E-01    5.569550E-01
    3.995663E-01    8.021724E-01
   -2.189368E-02    8.207557E-01
   -3.626682E-01    6.400672E-01
   -5.421363E-01    3.447633E-01
   -5.422479E-01    4.207662E-02
   -4.053087E-01   -1.769741E-01
   -2.109968E-01   -2.664863E-01
   -4.271600E-02   -2.350945E-01
    4.338379E-02   -1.345137E-01
    3.552876E-02   -3.350225E-02
   -3.524760E-02    1.156790E-02
   -1.130447E-01   -2.183009E-02
   -1.429925E-01   -1.163210E-01
   -9.450044E-02   -2.249132E-01
    2.687613E-02   -2.923352E-01
    1.827095E-01   -2.783502E-01
    3.176838E-01   -1.739233E-01
    3.814650E-01   -4.560278E-03
    3.477025E-01    1.796562E-01
    2.232250E-01    3.227998E-01
    4.468893E-02    3.829576E-01
   -1.352747E-01    3.460501E-01
   -2.666760E-01    2.288935E-01
   -3.183643E-01    7.134221E-02
   -2.864462E-01   -7.879239E-02
   -1.925549E-01   -1.820325E-01
   -7.364584E-02   -2.189162E-01
    3.210949E-02   -1.934027E-01
    9.798166E-02   -1.279067E-01
    1.155672E-01   -5.268907E-02
    9.425420E-02    5.850755E-03
    5.447773E-02    3.359594E-02
    1.815084E-02    3.133107E-02
    1.659046E-04    1.142450E-02
    3.998192E-03   -9.285757E-03
    2.242875E-02   -1.713296E-02
    4.235949E-02   -6.797047E-03
    5.125127E-02    1.764255E-02
    4.242811E-02    4.558927E-02
    1.732275E-02    6.508424E-02
   -1.582301E-02    6.788477E-02
   -4.583679E-02    5.247118E-02
   -6.319092E-02    2.406418E-02
   -6.342543E-02   -7.966876E-03
   -4.821550E-02   -3.396691E-02
   -2.400031E-02   -4.743860E-02
    9.473358E-04   -4.683521E-02
    1.965484E-02   -3.524800E-02
    2.855817E-02   -1.845949E-02
    2.794428E-02   -2.403132E-03
    2.089252E-02    8.879602E-03
    1.142763E-02    1.407962E-02
    2.807201E-03    1.418770E-02
   -3.367243E-03    1.126618E-02
   -7.034722E-03    7.169869E-03
   -8.860977E-03    2.827421E-03
   -9.319372E-03   -1.682417E-03
   -8.213105E-03   -6.477256E-03
   -4.875084E-03   -1.113161E-02
    1.120005E-03   -1.436429E-02
    9.189803E-03   -1.438851E-02
    1.742246E-02   -9.791995E-03
    2.297762E-02   -5.026803E-04
    2.311971E-02    1.168872E-02
    1.645651E-02    2.339917E-02
    3.803920E-03    3.071399E-02
   -1.175706E-02    3.063742E-02
   -2.576329E-02    2.235902E-02
   -3.388906E-02    7.762535E-03
   -3.352282E-02   -9.078032E-03
   -2.476642E-02   -2.326552E-02
   -1.044095E-02   -3.079658E-02
    4.932549E-03   -2.996582E-02
    1.676582E-02   -2.189707E-02
    2.204217E-02   -1.001729E-02
    2.030636E-02    1.322825E-03
    1.364386E-02    8.520168E-03
    5.684873E-03    1.002396E-02
    5.576356E-05    6.773663E-03
   -1.093504E-03    1.626007E-03
    2.104290E-03   -1.966692E-03
    7.387044E-03   -1.473778E-03
    1.139654E-02    3.616075E-03
    1.115210E-02    1.155125E-02
    5.364267E-03    1.901102E-02
   -4.935739E-03    2.244717E-02
   -1.669342E-02    1.953534E-02
   -2.593773E-02    1.016120E-02
   -2.924563E-02   -3.427462E-03
   -2.502467E-02   -1.736155E-02
   -1.411822E-02   -2.748746E-02
    4.689666E-04   -3.079564E-02
    1.460182E-02   -2.641860E-02
    2.440410E-02   -1.585740E-02
    2.750279E-02   -2.384242E-03
    2.368445E-02    1.010735E-02
    1.479437E-02    1.838889E-02
    3.953145E-03    2.085083E-02
   -5.573979E-03    1.782812E-02
   -1.143428E-02    1.124360E-02
   -1.281361E-02    3.763086E-03
