 Vespa-Simulation Mixed Metabolite Output
 This file was generated by Vespa-Simulation. You can learn about and download Vespa here:
https://github.com/vespa-mrs/vespa/tree/main/vespa

 
 Output Path/Filename = /home/stud/casperc/bhome/Project1(DeepFit)/DeepFit-data-generation/DeepFitData_TE_20_lw10_2048p
 Output Loop Values = (1,1,1)  ( Loop 1 = 10, Loop 2 = 10, Loop3 Inactive )
 Output Comment
 ---------------------------------------------------------------------------
 
 
 Experiment Information
 ---------------------------------------------------------------------------
 --- Experiment 18b0168e-f5f0-4bd4-8d52-da93aba06c60 ---
 Name: SyntheticDataSetDeepFitTE20
 Public: False
 Created: 2024-10-08T09:55:07
 Comment (abbr.): 
 PI: Casper Cappelen
 b0: 127.740000
 Peak Search PPM low/high: -15.000000 / 15.000000
 Blend tol. PPM/phase: 0.001500 / 50.000000
 Pulse seq.: 43be13ae-de9a-40a1-9a2d-c872d8bjs100 (PRESS Ideal)
 0 User static parameters: 
 22 Metabolites: 2-hydroxyglutarate, GPC-pcholine2, NAAG-truncated, alanine, choline-trimethyl, creatine, ethanolamine, gaba, glucose-beta, glutamate, glutamine, glutathione-glutamate, glutathione-glycine-cysteine, glycine, lactate, myo-inositol, n-acetylaspartate, phosphocreatine, phosphorylcholine-trimethyl, phosphorylethanolamine, pyruvate, taurine
 22 Simulations: (not shown)
 
 Metabolite Formatting Information
 ---------------------------------------------------------------------------
 Name=2-hydroxyglutarate Abbr=2HG Scale=1.0 Shift=0.0 PPM Start=-3.1207465171441986 PPM End=12.528391440425866
 Name=GPC-pcholine2 Abbr=GPC Scale=1.0 Shift=0.0 PPM Start=-3.1207465171441986 PPM End=12.528391440425866
 Name=NAAG-truncated Abbr=NAAG Scale=1.0 Shift=0.0 PPM Start=-3.1207465171441986 PPM End=12.528391440425866
 Name=alanine Abbr=Ala Scale=1.0 Shift=0.0 PPM Start=-3.1207465171441986 PPM End=12.528391440425866
 Name=choline-trimethyl Abbr=Cho Scale=1.0 Shift=0.0 PPM Start=-3.1207465171441986 PPM End=12.528391440425866
 Name=creatine Abbr=Cr Scale=1.0 Shift=0.0 PPM Start=-3.1207465171441986 PPM End=12.528391440425866
 Name=ethanolamine Abbr=ETA Scale=1.0 Shift=0.0 PPM Start=-3.1207465171441986 PPM End=12.528391440425866
 Name=gaba Abbr=GABA Scale=1.0 Shift=0.0 PPM Start=-3.1207465171441986 PPM End=12.528391440425866
 Name=glucose-beta Abbr=Glc Scale=1.0 Shift=0.0 PPM Start=-3.1207465171441986 PPM End=12.528391440425866
 Name=glutamate Abbr=Glu Scale=1.0 Shift=0.0 PPM Start=-3.1207465171441986 PPM End=12.528391440425866
 Name=glutamine Abbr=Gln Scale=1.0 Shift=0.0 PPM Start=-3.1207465171441986 PPM End=12.528391440425866
 Name=glycine Abbr=Gly Scale=1.0 Shift=0.0 PPM Start=-3.1207465171441986 PPM End=12.528391440425866
 Name=lactate Abbr=Lac Scale=1.0 Shift=0.0 PPM Start=-3.1207465171441986 PPM End=12.528391440425866
 Name=myo-inositol Abbr=mI Scale=1.0 Shift=0.0 PPM Start=-3.1207465171441986 PPM End=12.528391440425866
 Name=n-acetylaspartate Abbr=NAA Scale=1.0 Shift=0.0 PPM Start=-3.1207465171441986 PPM End=12.528391440425866
 Name=phosphocreatine Abbr=PCr Scale=1.0 Shift=0.0 PPM Start=-3.1207465171441986 PPM End=12.528391440425866
 Name=phosphorylcholine-trimethyl Abbr=PCho Scale=1.0 Shift=0.0 PPM Start=-3.1207465171441986 PPM End=12.528391440425866
 Name=phosphorylethanolamine Abbr=PE Scale=1.0 Shift=0.0 PPM Start=-3.1207465171441986 PPM End=12.528391440425866
 Name=pyruvate Abbr=Pyr Scale=1.0 Shift=0.0 PPM Start=-3.1207465171441986 PPM End=12.528391440425866
 Name=taurine Abbr=Tau Scale=1.0 Shift=0.0 PPM Start=-3.1207465171441986 PPM End=12.528391440425866
 Name=glutathione-glutamate+glutathione-glycine-cysteine Abbr=GSH Scale=1.0 Shift=0.0 PPM Start=-3.1207565171441987 PPM End=12.528
   Mixture of [metab*scale] = glutathione-glutamate*1.000000 + glutathione-glycine-cysteine*1.000000
 
 ===========================================================================
 This LCModel format RAW file was created using the 
 Vespa-Simulation spectral simulation program using 
 the following settings and parameters 
 
 Sweep Width = 2000.0 Hz 
 Vector Size = 2048 points 
 Apodization = 10.0 Hz Gaussian broadening
 B0 Field    = 127.74 MHz 
 Ref Singlet = False
  
 This data has been FFTd to be in the FREQUENCY domain
 
 $NMID ID='ETA'
 FMTDAT='(2E16.6)'
 VOLUME=1.0
 TRAMP=1.0
 $END
    1.821289E+00    7.988763E+00
    1.821307E+00    8.049942E+00
    1.821331E+00    8.112078E+00
    1.821361E+00    8.175194E+00
    1.821397E+00    8.239317E+00
    1.821440E+00    8.304471E+00
    1.821490E+00    8.370683E+00
    1.821548E+00    8.437983E+00
    1.821615E+00    8.506398E+00
    1.821692E+00    8.575959E+00
    1.821780E+00    8.646695E+00
    1.821879E+00    8.718639E+00
    1.821991E+00    8.791822E+00
    1.822116E+00    8.866280E+00
    1.822254E+00    8.942047E+00
    1.822407E+00    9.019161E+00
    1.822575E+00    9.097659E+00
    1.822758E+00    9.177583E+00
    1.822958E+00    9.258973E+00
    1.823174E+00    9.341872E+00
    1.823408E+00    9.426327E+00
    1.823660E+00    9.512384E+00
    1.823931E+00    9.600093E+00
    1.824221E+00    9.689504E+00
    1.824533E+00    9.780673E+00
    1.824867E+00    9.873656E+00
    1.825225E+00    9.968510E+00
    1.825609E+00    1.006530E+01
    1.826021E+00    1.016408E+01
    1.826463E+00    1.026493E+01
    1.826937E+00    1.036792E+01
    1.827446E+00    1.047311E+01
    1.827993E+00    1.058059E+01
    1.828580E+00    1.069043E+01
    1.829211E+00    1.080271E+01
    1.829889E+00    1.091754E+01
    1.830617E+00    1.103499E+01
    1.831400E+00    1.115517E+01
    1.832240E+00    1.127818E+01
    1.833142E+00    1.140412E+01
    1.834111E+00    1.153312E+01
    1.835152E+00    1.166528E+01
    1.836269E+00    1.180074E+01
    1.837469E+00    1.193963E+01
    1.838757E+00    1.208208E+01
    1.840140E+00    1.222826E+01
    1.841626E+00    1.237831E+01
    1.843221E+00    1.253241E+01
    1.844934E+00    1.269072E+01
    1.846775E+00    1.285345E+01
    1.848753E+00    1.302078E+01
    1.850881E+00    1.319294E+01
    1.853171E+00    1.337014E+01
    1.855636E+00    1.355264E+01
    1.858291E+00    1.374067E+01
    1.861152E+00    1.393453E+01
    1.864237E+00    1.413451E+01
    1.867566E+00    1.434091E+01
    1.871161E+00    1.455409E+01
    1.875047E+00    1.477439E+01
    1.879251E+00    1.500221E+01
    1.883802E+00    1.523798E+01
    1.888734E+00    1.548213E+01
    1.894084E+00    1.573517E+01
    1.899894E+00    1.599762E+01
    1.906211E+00    1.627006E+01
    1.913086E+00    1.655311E+01
    1.920580E+00    1.684744E+01
    1.928758E+00    1.715380E+01
    1.937695E+00    1.747300E+01
    1.947478E+00    1.780591E+01
    1.958202E+00    1.815352E+01
    1.969979E+00    1.851689E+01
    1.982934E+00    1.889720E+01
    1.997214E+00    1.929576E+01
    2.012987E+00    1.971402E+01
    2.030447E+00    2.015359E+01
    2.049822E+00    2.061629E+01
    2.071374E+00    2.110413E+01
    2.095416E+00    2.161940E+01
    2.122315E+00    2.216469E+01
    2.152508E+00    2.274292E+01
    2.186518E+00    2.335746E+01
    2.224980E+00    2.401216E+01
    2.268663E+00    2.471151E+01
    2.318518E+00    2.546071E+01
    2.375731E+00    2.626590E+01
    2.441814E+00    2.713438E+01
    2.518737E+00    2.807493E+01
    2.609156E+00    2.909823E+01
    2.716801E+00    3.021749E+01
    2.847152E+00    3.144916E+01
    3.008615E+00    3.281389E+01
    3.214475E+00    3.433746E+01
    3.485982E+00    3.605140E+01
    3.856808E+00    3.799257E+01
    4.378793E+00    4.020060E+01
    5.128175E+00    4.271198E+01
    6.210417E+00    4.554945E+01
    7.760634E+00    4.870687E+01
    9.936105E+00    5.213127E+01
    1.289834E+01    5.570682E+01
    1.678515E+01    5.924724E+01
    2.167767E+01    6.250298E+01
    2.757184E+01    6.518613E+01
    3.436478E+01    6.700893E+01
    4.186305E+01    6.772523E+01
    4.981080E+01    6.716057E+01
    5.792650E+01    6.522126E+01
    6.593241E+01    6.188257E+01
    7.356557E+01    5.716805E+01
    8.057140E+01    5.113668E+01
    8.669376E+01    4.388807E+01
    9.167892E+01    3.558154E+01
    9.530174E+01    2.645157E+01
    9.740514E+01    1.680057E+01
    9.793075E+01    6.963080E+00
    9.692002E+01   -2.745115E+00
    9.448184E+01   -1.206642E+01
    9.074440E+01   -2.080775E+01
    8.582055E+01   -2.881187E+01
    7.980850E+01   -3.591453E+01
    7.282786E+01   -4.191826E+01
    6.506822E+01   -4.660443E+01
    5.681879E+01   -4.978270E+01
    4.845738E+01   -5.135500E+01
    4.039850E+01   -5.136311E+01
    3.302052E+01   -4.999767E+01
    2.660036E+01   -4.756499E+01
    2.127763E+01   -4.442643E+01
    1.705559E+01   -4.093294E+01
    1.383173E+01   -3.737485E+01
    1.144231E+01   -3.395694E+01
    9.705502E+00   -3.079785E+01
    8.452947E+00   -2.794602E+01
    7.546618E+00   -2.540231E+01
    6.883025E+00   -2.314151E+01
    6.389353E+00   -2.112845E+01
    6.016124E+00   -1.932766E+01
    5.729722E+00   -1.770777E+01
    5.506539E+00   -1.624236E+01
    5.329190E+00   -1.490928E+01
    5.184473E+00   -1.368940E+01
    5.062440E+00   -1.256583E+01
    4.955963E+00   -1.152349E+01
    4.860379E+00   -1.054908E+01
    4.773034E+00   -9.631153E+00
    4.692719E+00   -8.760216E+00
    4.619108E+00   -7.928560E+00
    4.552278E+00   -7.130041E+00
    4.492388E+00   -6.359739E+00
    4.439507E+00   -5.613625E+00
    4.393559E+00   -4.888276E+00
    4.354349E+00   -4.180662E+00
    4.321611E+00   -3.488004E+00
    4.295057E+00   -2.807693E+00
    4.274419E+00   -2.137239E+00
    4.259472E+00   -1.474239E+00
    4.250046E+00   -8.163584E-01
    4.246031E+00   -1.613069E-01
    4.247381E+00    4.931792E-01
    4.254110E+00    1.149359E+00
    4.266298E+00    1.809506E+00
    4.284084E+00    2.475932E+00
    4.307667E+00    3.151003E+00
    4.337299E+00    3.837161E+00
    4.373263E+00    4.536950E+00
    4.415843E+00    5.253053E+00
    4.465278E+00    5.988355E+00
    4.521711E+00    6.746056E+00
    4.585143E+00    7.529840E+00
    4.655442E+00    8.344127E+00
    4.732447E+00    9.194394E+00
