 Vespa-Simulation Mixed Metabolite Output
 This file was generated by Vespa-Simulation. You can learn about and download Vespa here:
https://github.com/vespa-mrs/vespa/tree/main/vespa

 
 Output Path/Filename = /home/stud/casperc/bhome/Project1(DeepFit)/DeepFit-data-generation/DeepFitData_TE_20_lw10_2048p
 Output Loop Values = (1,1,1)  ( Loop 1 = 10, Loop 2 = 10, Loop3 Inactive )
 Output Comment
 ---------------------------------------------------------------------------
 
 
 Experiment Information
 ---------------------------------------------------------------------------
 --- Experiment 18b0168e-f5f0-4bd4-8d52-da93aba06c60 ---
 Name: SyntheticDataSetDeepFitTE20
 Public: False
 Created: 2024-10-08T09:55:07
 Comment (abbr.): 
 PI: Casper Cappelen
 b0: 127.740000
 Peak Search PPM low/high: -15.000000 / 15.000000
 Blend tol. PPM/phase: 0.001500 / 50.000000
 Pulse seq.: 43be13ae-de9a-40a1-9a2d-c872d8bjs100 (PRESS Ideal)
 0 User static parameters: 
 22 Metabolites: 2-hydroxyglutarate, GPC-pcholine2, NAAG-truncated, alanine, choline-trimethyl, creatine, ethanolamine, gaba, glucose-beta, glutamate, glutamine, glutathione-glutamate, glutathione-glycine-cysteine, glycine, lactate, myo-inositol, n-acetylaspartate, phosphocreatine, phosphorylcholine-trimethyl, phosphorylethanolamine, pyruvate, taurine
 22 Simulations: (not shown)
 
 Metabolite Formatting Information
 ---------------------------------------------------------------------------
 Name=2-hydroxyglutarate Abbr=2HG Scale=1.0 Shift=0.0 PPM Start=-3.1207465171441986 PPM End=12.528391440425866
 Name=GPC-pcholine2 Abbr=GPC Scale=1.0 Shift=0.0 PPM Start=-3.1207465171441986 PPM End=12.528391440425866
 Name=NAAG-truncated Abbr=NAAG Scale=1.0 Shift=0.0 PPM Start=-3.1207465171441986 PPM End=12.528391440425866
 Name=alanine Abbr=Ala Scale=1.0 Shift=0.0 PPM Start=-3.1207465171441986 PPM End=12.528391440425866
 Name=choline-trimethyl Abbr=Cho Scale=1.0 Shift=0.0 PPM Start=-3.1207465171441986 PPM End=12.528391440425866
 Name=creatine Abbr=Cr Scale=1.0 Shift=0.0 PPM Start=-3.1207465171441986 PPM End=12.528391440425866
 Name=ethanolamine Abbr=ETA Scale=1.0 Shift=0.0 PPM Start=-3.1207465171441986 PPM End=12.528391440425866
 Name=gaba Abbr=GABA Scale=1.0 Shift=0.0 PPM Start=-3.1207465171441986 PPM End=12.528391440425866
 Name=glucose-beta Abbr=Glc Scale=1.0 Shift=0.0 PPM Start=-3.1207465171441986 PPM End=12.528391440425866
 Name=glutamate Abbr=Glu Scale=1.0 Shift=0.0 PPM Start=-3.1207465171441986 PPM End=12.528391440425866
 Name=glutamine Abbr=Gln Scale=1.0 Shift=0.0 PPM Start=-3.1207465171441986 PPM End=12.528391440425866
 Name=glycine Abbr=Gly Scale=1.0 Shift=0.0 PPM Start=-3.1207465171441986 PPM End=12.528391440425866
 Name=lactate Abbr=Lac Scale=1.0 Shift=0.0 PPM Start=-3.1207465171441986 PPM End=12.528391440425866
 Name=myo-inositol Abbr=mI Scale=1.0 Shift=0.0 PPM Start=-3.1207465171441986 PPM End=12.528391440425866
 Name=n-acetylaspartate Abbr=NAA Scale=1.0 Shift=0.0 PPM Start=-3.1207465171441986 PPM End=12.528391440425866
 Name=phosphocreatine Abbr=PCr Scale=1.0 Shift=0.0 PPM Start=-3.1207465171441986 PPM End=12.528391440425866
 Name=phosphorylcholine-trimethyl Abbr=PCho Scale=1.0 Shift=0.0 PPM Start=-3.1207465171441986 PPM End=12.528391440425866
 Name=phosphorylethanolamine Abbr=PE Scale=1.0 Shift=0.0 PPM Start=-3.1207465171441986 PPM End=12.528391440425866
 Name=pyruvate Abbr=Pyr Scale=1.0 Shift=0.0 PPM Start=-3.1207465171441986 PPM End=12.528391440425866
 Name=taurine Abbr=Tau Scale=1.0 Shift=0.0 PPM Start=-3.1207465171441986 PPM End=12.528391440425866
 Name=glutathione-glutamate+glutathione-glycine-cysteine Abbr=GSH Scale=1.0 Shift=0.0 PPM Start=-3.1207565171441987 PPM End=12.528
   Mixture of [metab*scale] = glutathione-glutamate*1.000000 + glutathione-glycine-cysteine*1.000000
 
 ===========================================================================
 This LCModel format RAW file was created using the 
 Vespa-Simulation spectral simulation program using 
 the following settings and parameters 
 
 Sweep Width = 2000.0 Hz 
 Vector Size = 2048 points 
 Apodization = 10.0 Hz Gaussian broadening
 B0 Field    = 127.74 MHz 
 Ref Singlet = False
  
 $NMID ID='GABA'
 FMTDAT='(2E16.6)'
 VOLUME=1.0
 TRAMP=1.0
 $END
    4.688837E+00    7.571226E-02
    2.693904E+00    3.751915E+00
   -1.357188E+00    4.192726E+00
   -3.869358E+00    1.260417E+00
   -2.911926E+00   -2.166963E+00
    1.345868E-01   -3.115126E+00
    2.231970E+00   -1.279049E+00
    1.747710E+00    1.057072E+00
   -2.116033E-01    1.583022E+00
   -1.312952E+00    2.074577E-01
   -5.104937E-01   -1.199555E+00
    1.074093E+00   -9.910845E-01
    1.575391E+00    5.850949E-01
    3.809337E-01    1.838747E+00
   -1.370875E+00    1.476433E+00
   -2.070540E+00   -1.845837E-01
   -1.177277E+00   -1.705569E+00
    4.816703E-01   -1.949888E+00
    1.660478E+00   -9.378465E-01
    1.728730E+00    4.746537E-01
    8.841705E-01    1.441401E+00
   -2.948657E-01    1.594777E+00
   -1.260884E+00    9.733013E-01
   -1.590116E+00   -1.421840E-01
   -1.047630E+00   -1.227902E+00
    1.666711E-01   -1.615739E+00
    1.305634E+00   -9.410426E-01
    1.508916E+00    3.899951E-01
    5.785777E-01    1.349562E+00
   -7.006395E-01    1.146675E+00
   -1.198046E+00    2.105427E-02
   -5.213357E-01   -9.175470E-01
    5.620798E-01   -7.653215E-01
    8.843565E-01    2.465292E-01
    9.124550E-02    9.719052E-01
   -9.586421E-01    5.462060E-01
   -1.069221E+00   -6.722449E-01
    2.567373E-02   -1.423676E+00
    1.325969E+00   -8.311087E-01
    1.533914E+00    6.677542E-01
    3.528234E-01    1.704790E+00
   -1.194926E+00    1.300446E+00
   -1.737719E+00   -1.996637E-01
   -8.364828E-01   -1.472622E+00
    6.594928E-01   -1.463230E+00
    1.459158E+00   -3.030207E-01
    9.998374E-01    9.181962E-01
   -1.544924E-01    1.205065E+00
   -9.514923E-01    4.915065E-01
   -8.172610E-01   -4.508694E-01
   -5.504834E-02   -8.073502E-01
    5.725352E-01   -4.098281E-01
    5.693495E-01    2.494608E-01
    6.462599E-02    5.588444E-01
   -4.186052E-01    3.164269E-01
   -4.685292E-01   -1.843518E-01
   -9.695465E-02   -4.837640E-01
    3.426589E-01   -3.498124E-01
    4.831146E-01    7.559403E-02
    2.263529E-01    4.337322E-01
   -2.098593E-01    4.419643E-01
   -4.779199E-01    1.007317E-01
   -3.681703E-01   -3.179248E-01
    3.168510E-02   -4.822205E-01
    4.021435E-01   -2.602485E-01
    4.428379E-01    1.689837E-01
    1.199911E-01    4.529688E-01
   -2.969443E-01    3.555327E-01
   -4.564604E-01   -3.913043E-02
   -2.258589E-01   -3.930043E-01
    1.920381E-01   -4.050776E-01
    4.364158E-01   -7.293251E-02
    3.050733E-01    3.099367E-01
   -7.467893E-02    4.179679E-01
   -3.707648E-01    1.766185E-01
   -3.443983E-01   -1.883762E-01
   -4.735872E-02   -3.668510E-01
    2.488387E-01   -2.357884E-01
    3.065174E-01    5.698611E-02
    1.180207E-01    2.513156E-01
   -1.201929E-01    2.096714E-01
   -2.049838E-01    1.436268E-02
   -1.002969E-01   -1.387146E-01
    6.044439E-02   -1.279430E-01
    1.199173E-01    6.277240E-04
    4.057340E-02    1.018257E-01
   -7.939118E-02    7.745037E-02
   -1.134567E-01   -3.985798E-02
   -2.613163E-02   -1.303270E-01
    1.020130E-01   -1.036440E-01
    1.542180E-01    2.173372E-02
    8.185782E-02    1.407551E-01
   -5.798909E-02    1.557965E-01
   -1.560080E-01    5.644407E-02
   -1.415692E-01   -7.875527E-02
   -3.361548E-02   -1.511801E-01
    8.377354E-02   -1.183392E-01
    1.318050E-01   -1.713774E-02
    9.226584E-02    7.557372E-02
    8.385842E-03    1.043630E-01
   -5.862512E-02    6.812529E-02
   -7.516247E-02    6.517558E-03
   -4.877382E-02   -3.827479E-02
   -9.019659E-03   -4.924161E-02
    1.954656E-02   -3.493521E-02
    2.954436E-02   -1.261092E-02
    2.557891E-02    5.964196E-03
    1.441451E-02    1.668718E-02
    1.149533E-03    1.880926E-02
   -9.446282E-03    1.295273E-02
   -1.295825E-02    2.647221E-03
   -8.558200E-03   -5.764828E-03
   -8.041244E-04   -7.387569E-03
    3.809359E-03   -3.044597E-03
    2.662347E-03    1.778231E-03
   -1.183252E-03    2.618950E-03
   -3.122472E-03    7.948763E-05
   -2.119045E-03   -2.121693E-03
   -8.631387E-04   -2.292935E-03
   -1.189229E-03   -2.634335E-03
   -7.763285E-04   -5.483754E-03
    4.278530E-03   -8.603865E-03
    1.344180E-02   -5.790169E-03
    1.928230E-02    6.622938E-03
    1.253634E-02    2.356761E-02
   -8.834692E-03    3.222679E-02
   -3.458597E-02    2.095202E-02
   -4.655968E-02   -1.017247E-02
   -3.078916E-02   -4.554202E-02
    1.046333E-02   -6.136618E-02
    5.578685E-02   -4.113925E-02
    7.523192E-02    1.021003E-02
    5.022313E-02    6.451907E-02
   -1.009954E-02    8.588042E-02
   -7.016832E-02    5.580201E-02
   -9.032936E-02   -1.017059E-02
   -5.613451E-02   -7.016293E-02
    9.088617E-03   -8.575998E-02
    6.143933E-02   -5.111198E-02
    7.085414E-02    4.135365E-03
    4.288536E-02    4.172945E-02
    7.884327E-03    4.698289E-02
   -1.109457E-02    3.550166E-02
   -1.850191E-02    2.894384E-02
   -3.337651E-02    2.703702E-02
   -5.811941E-02    8.272821E-03
   -6.610047E-02   -3.919297E-02
   -2.721149E-02   -9.083874E-02
    5.216131E-02   -9.812302E-02
    1.196931E-01   -3.484535E-02
    1.164094E-01    6.762328E-02
    3.198720E-02    1.367506E-01
   -7.843800E-02    1.181028E-01
   -1.365339E-01    2.357487E-02
   -1.053648E-01   -7.778258E-02
   -1.670243E-02   -1.183124E-01
    6.209459E-02   -8.454373E-02
    8.660005E-02   -1.746871E-02
    6.348075E-02    3.289209E-02
    2.817393E-02    4.944458E-02
    3.593355E-03    4.817098E-02
   -1.519704E-02    4.617834E-02
   -4.031583E-02    3.887829E-02
   -6.511358E-02    1.079689E-02
   -6.574890E-02   -3.698164E-02
   -2.799780E-02   -7.787949E-02
    3.255022E-02   -8.113721E-02
    8.005804E-02   -4.009581E-02
    8.697188E-02    2.206541E-02
    5.230334E-02    7.203645E-02
   -4.222471E-03    8.856881E-02
   -5.870858E-02    6.794588E-02
   -9.131708E-02    1.748693E-02
   -8.604187E-02   -4.686649E-02
