 Vespa-Simulation Mixed Metabolite Output
 This file was generated by Vespa-Simulation. You can learn about and download Vespa here:
https://github.com/vespa-mrs/vespa/tree/main/vespa

 
 Output Path/Filename = /home/stud/casperc/bhome/Project1(DeepFit)/DeepFit-data-generation/DeepFitData_TE_20_lw10_2048p
 Output Loop Values = (1,1,1)  ( Loop 1 = 10, Loop 2 = 10, Loop3 Inactive )
 Output Comment
 ---------------------------------------------------------------------------
 
 
 Experiment Information
 ---------------------------------------------------------------------------
 --- Experiment 18b0168e-f5f0-4bd4-8d52-da93aba06c60 ---
 Name: SyntheticDataSetDeepFitTE20
 Public: False
 Created: 2024-10-08T09:55:07
 Comment (abbr.): 
 PI: Casper Cappelen
 b0: 127.740000
 Peak Search PPM low/high: -15.000000 / 15.000000
 Blend tol. PPM/phase: 0.001500 / 50.000000
 Pulse seq.: 43be13ae-de9a-40a1-9a2d-c872d8bjs100 (PRESS Ideal)
 0 User static parameters: 
 22 Metabolites: 2-hydroxyglutarate, GPC-pcholine2, NAAG-truncated, alanine, choline-trimethyl, creatine, ethanolamine, gaba, glucose-beta, glutamate, glutamine, glutathione-glutamate, glutathione-glycine-cysteine, glycine, lactate, myo-inositol, n-acetylaspartate, phosphocreatine, phosphorylcholine-trimethyl, phosphorylethanolamine, pyruvate, taurine
 22 Simulations: (not shown)
 
 Metabolite Formatting Information
 ---------------------------------------------------------------------------
 Name=2-hydroxyglutarate Abbr=2HG Scale=1.0 Shift=0.0 PPM Start=-3.1207465171441986 PPM End=12.528391440425866
 Name=GPC-pcholine2 Abbr=GPC Scale=1.0 Shift=0.0 PPM Start=-3.1207465171441986 PPM End=12.528391440425866
 Name=NAAG-truncated Abbr=NAAG Scale=1.0 Shift=0.0 PPM Start=-3.1207465171441986 PPM End=12.528391440425866
 Name=alanine Abbr=Ala Scale=1.0 Shift=0.0 PPM Start=-3.1207465171441986 PPM End=12.528391440425866
 Name=choline-trimethyl Abbr=Cho Scale=1.0 Shift=0.0 PPM Start=-3.1207465171441986 PPM End=12.528391440425866
 Name=creatine Abbr=Cr Scale=1.0 Shift=0.0 PPM Start=-3.1207465171441986 PPM End=12.528391440425866
 Name=ethanolamine Abbr=ETA Scale=1.0 Shift=0.0 PPM Start=-3.1207465171441986 PPM End=12.528391440425866
 Name=gaba Abbr=GABA Scale=1.0 Shift=0.0 PPM Start=-3.1207465171441986 PPM End=12.528391440425866
 Name=glucose-beta Abbr=Glc Scale=1.0 Shift=0.0 PPM Start=-3.1207465171441986 PPM End=12.528391440425866
 Name=glutamate Abbr=Glu Scale=1.0 Shift=0.0 PPM Start=-3.1207465171441986 PPM End=12.528391440425866
 Name=glutamine Abbr=Gln Scale=1.0 Shift=0.0 PPM Start=-3.1207465171441986 PPM End=12.528391440425866
 Name=glycine Abbr=Gly Scale=1.0 Shift=0.0 PPM Start=-3.1207465171441986 PPM End=12.528391440425866
 Name=lactate Abbr=Lac Scale=1.0 Shift=0.0 PPM Start=-3.1207465171441986 PPM End=12.528391440425866
 Name=myo-inositol Abbr=mI Scale=1.0 Shift=0.0 PPM Start=-3.1207465171441986 PPM End=12.528391440425866
 Name=n-acetylaspartate Abbr=NAA Scale=1.0 Shift=0.0 PPM Start=-3.1207465171441986 PPM End=12.528391440425866
 Name=phosphocreatine Abbr=PCr Scale=1.0 Shift=0.0 PPM Start=-3.1207465171441986 PPM End=12.528391440425866
 Name=phosphorylcholine-trimethyl Abbr=PCho Scale=1.0 Shift=0.0 PPM Start=-3.1207465171441986 PPM End=12.528391440425866
 Name=phosphorylethanolamine Abbr=PE Scale=1.0 Shift=0.0 PPM Start=-3.1207465171441986 PPM End=12.528391440425866
 Name=pyruvate Abbr=Pyr Scale=1.0 Shift=0.0 PPM Start=-3.1207465171441986 PPM End=12.528391440425866
 Name=taurine Abbr=Tau Scale=1.0 Shift=0.0 PPM Start=-3.1207465171441986 PPM End=12.528391440425866
 Name=glutathione-glutamate+glutathione-glycine-cysteine Abbr=GSH Scale=1.0 Shift=0.0 PPM Start=-3.1207565171441987 PPM End=12.528
   Mixture of [metab*scale] = glutathione-glutamate*1.000000 + glutathione-glycine-cysteine*1.000000
 
 ===========================================================================
 This LCModel format RAW file was created using the 
 Vespa-Simulation spectral simulation program using 
 the following settings and parameters 
 
 Sweep Width = 2000.0 Hz 
 Vector Size = 2048 points 
 Apodization = 10.0 Hz Gaussian broadening
 B0 Field    = 127.74 MHz 
 Ref Singlet = False
  
 This data has been FFTd to be in the FREQUENCY domain
 
 $NMID ID='GABA'
 FMTDAT='(2E16.6)'
 VOLUME=1.0
 TRAMP=1.0
 $END
    2.275962E+00    4.920706E+00
    2.275790E+00    4.940923E+00
    2.275620E+00    4.961285E+00
    2.275451E+00    4.981792E+00
    2.275285E+00    5.002446E+00
    2.275120E+00    5.023247E+00
    2.274955E+00    5.044198E+00
    2.274790E+00    5.065301E+00
    2.274625E+00    5.086558E+00
    2.274460E+00    5.107971E+00
    2.274296E+00    5.129543E+00
    2.274132E+00    5.151275E+00
    2.273969E+00    5.173169E+00
    2.273807E+00    5.195228E+00
    2.273645E+00    5.217452E+00
    2.273484E+00    5.239846E+00
    2.273325E+00    5.262410E+00
    2.273167E+00    5.285148E+00
    2.273010E+00    5.308060E+00
    2.272856E+00    5.331149E+00
    2.272702E+00    5.354416E+00
    2.272548E+00    5.377865E+00
    2.272393E+00    5.401498E+00
    2.272239E+00    5.425320E+00
    2.272087E+00    5.449335E+00
    2.271940E+00    5.473543E+00
    2.271798E+00    5.497946E+00
    2.271664E+00    5.522544E+00
    2.271534E+00    5.547335E+00
    2.271405E+00    5.572321E+00
    2.271272E+00    5.597505E+00
    2.271133E+00    5.622895E+00
    2.270987E+00    5.648498E+00
    2.270836E+00    5.674323E+00
    2.270686E+00    5.700374E+00
    2.270543E+00    5.726656E+00
    2.270411E+00    5.753167E+00
    2.270293E+00    5.779904E+00
    2.270189E+00    5.806865E+00
    2.270093E+00    5.834049E+00
    2.270000E+00    5.861456E+00
    2.269904E+00    5.889093E+00
    2.269801E+00    5.916968E+00
    2.269689E+00    5.945091E+00
    2.269573E+00    5.973471E+00
    2.269457E+00    6.002115E+00
    2.269349E+00    6.031027E+00
    2.269252E+00    6.060207E+00
    2.269169E+00    6.089653E+00
    2.269099E+00    6.119365E+00
    2.269039E+00    6.149343E+00
    2.268983E+00    6.179590E+00
    2.268929E+00    6.210113E+00
    2.268875E+00    6.240918E+00
    2.268821E+00    6.272014E+00
    2.268768E+00    6.303408E+00
    2.268719E+00    6.335105E+00
    2.268676E+00    6.367108E+00
    2.268640E+00    6.399423E+00
    2.268611E+00    6.432053E+00
    2.268589E+00    6.465003E+00
    2.268575E+00    6.498279E+00
    2.268568E+00    6.531886E+00
    2.268569E+00    6.565829E+00
    2.268580E+00    6.600112E+00
    2.268599E+00    6.634742E+00
    2.268626E+00    6.669724E+00
    2.268662E+00    6.705065E+00
    2.268705E+00    6.740770E+00
    2.268759E+00    6.776848E+00
    2.268823E+00    6.813305E+00
    2.268899E+00    6.850145E+00
    2.268987E+00    6.887374E+00
    2.269086E+00    6.924998E+00
    2.269194E+00    6.963024E+00
    2.269309E+00    7.001461E+00
    2.269432E+00    7.040319E+00
    2.269563E+00    7.079609E+00
    2.269706E+00    7.119340E+00
    2.269867E+00    7.159521E+00
    2.270048E+00    7.200156E+00
    2.270250E+00    7.241250E+00
    2.270473E+00    7.282807E+00
    2.270713E+00    7.324835E+00
    2.270966E+00    7.367342E+00
    2.271228E+00    7.410342E+00
    2.271500E+00    7.453848E+00
    2.271783E+00    7.497875E+00
    2.272082E+00    7.542435E+00
    2.272401E+00    7.587541E+00
    2.272746E+00    7.633199E+00
    2.273117E+00    7.679419E+00
    2.273517E+00    7.726207E+00
    2.273943E+00    7.773573E+00
    2.274393E+00    7.821528E+00
    2.274863E+00    7.870086E+00
    2.275353E+00    7.919262E+00
    2.275865E+00    7.969074E+00
    2.276401E+00    8.019538E+00
    2.276965E+00    8.070670E+00
    2.277561E+00    8.122482E+00
    2.278193E+00    8.174990E+00
    2.278863E+00    8.228204E+00
    2.279571E+00    8.282139E+00
    2.280316E+00    8.336811E+00
    2.281098E+00    8.392237E+00
    2.281918E+00    8.448436E+00
    2.282777E+00    8.505427E+00
    2.283678E+00    8.563230E+00
    2.284624E+00    8.621866E+00
    2.285617E+00    8.681352E+00
    2.286660E+00    8.741710E+00
    2.287754E+00    8.802961E+00
    2.288901E+00    8.865127E+00
    2.290105E+00    8.928231E+00
    2.291367E+00    8.992298E+00
    2.292691E+00    9.057353E+00
    2.294082E+00    9.123421E+00
    2.295543E+00    9.190526E+00
    2.297075E+00    9.258695E+00
    2.298683E+00    9.327955E+00
    2.300367E+00    9.398336E+00
    2.302130E+00    9.469868E+00
    2.303975E+00    9.542586E+00
    2.305906E+00    9.616523E+00
    2.307930E+00    9.691715E+00
    2.310051E+00    9.768196E+00
    2.312277E+00    9.846003E+00
    2.314612E+00    9.925174E+00
    2.317062E+00    1.000574E+01
    2.319632E+00    1.008775E+01
    2.322326E+00    1.017125E+01
    2.325146E+00    1.025626E+01
    2.328095E+00    1.034284E+01
    2.331178E+00    1.043105E+01
    2.334397E+00    1.052092E+01
    2.337754E+00    1.061251E+01
    2.341254E+00    1.070587E+01
    2.344894E+00    1.080107E+01
    2.348670E+00    1.089815E+01
    2.352574E+00    1.099718E+01
    2.356587E+00    1.109824E+01
    2.360689E+00    1.120140E+01
    2.364858E+00    1.130678E+01
    2.369081E+00    1.141449E+01
    2.373358E+00    1.152469E+01
    2.377712E+00    1.163754E+01
    2.382195E+00    1.175317E+01
    2.386877E+00    1.187176E+01
    2.391843E+00    1.199341E+01
    2.397169E+00    1.211825E+01
    2.402916E+00    1.224637E+01
    2.409126E+00    1.237790E+01
    2.415835E+00    1.251297E+01
    2.423099E+00    1.265178E+01
    2.431018E+00    1.279450E+01
    2.439732E+00    1.294132E+01
    2.449411E+00    1.309238E+01
    2.460211E+00    1.324774E+01
    2.472233E+00    1.340745E+01
    2.485515E+00    1.357157E+01
    2.500044E+00    1.374019E+01
    2.515796E+00    1.391348E+01
    2.532778E+00    1.409166E+01
    2.551028E+00    1.427494E+01
    2.570582E+00    1.446354E+01
    2.591409E+00    1.465762E+01
    2.613375E+00    1.485742E+01
    2.636253E+00    1.506334E+01
    2.659817E+00    1.527600E+01
    2.683973E+00    1.549624E+01
    2.708884E+00    1.572507E+01
    2.735017E+00    1.596351E+01
