 Vespa-Simulation Mixed Metabolite Output
 This file was generated by Vespa-Simulation. You can learn about and download Vespa here:
https://github.com/vespa-mrs/vespa/tree/main/vespa

 
 Output Path/Filename = /home/stud/casperc/bhome/Project1(DeepFit)/DeepFit-data-generation/DeepFitData_TE_20_lw10_2048p
 Output Loop Values = (1,1,1)  ( Loop 1 = 10, Loop 2 = 10, Loop3 Inactive )
 Output Comment
 ---------------------------------------------------------------------------
 
 
 Experiment Information
 ---------------------------------------------------------------------------
 --- Experiment 18b0168e-f5f0-4bd4-8d52-da93aba06c60 ---
 Name: SyntheticDataSetDeepFitTE20
 Public: False
 Created: 2024-10-08T09:55:07
 Comment (abbr.): 
 PI: Casper Cappelen
 b0: 127.740000
 Peak Search PPM low/high: -15.000000 / 15.000000
 Blend tol. PPM/phase: 0.001500 / 50.000000
 Pulse seq.: 43be13ae-de9a-40a1-9a2d-c872d8bjs100 (PRESS Ideal)
 0 User static parameters: 
 22 Metabolites: 2-hydroxyglutarate, GPC-pcholine2, NAAG-truncated, alanine, choline-trimethyl, creatine, ethanolamine, gaba, glucose-beta, glutamate, glutamine, glutathione-glutamate, glutathione-glycine-cysteine, glycine, lactate, myo-inositol, n-acetylaspartate, phosphocreatine, phosphorylcholine-trimethyl, phosphorylethanolamine, pyruvate, taurine
 22 Simulations: (not shown)
 
 Metabolite Formatting Information
 ---------------------------------------------------------------------------
 Name=2-hydroxyglutarate Abbr=2HG Scale=1.0 Shift=0.0 PPM Start=-3.1207465171441986 PPM End=12.528391440425866
 Name=GPC-pcholine2 Abbr=GPC Scale=1.0 Shift=0.0 PPM Start=-3.1207465171441986 PPM End=12.528391440425866
 Name=NAAG-truncated Abbr=NAAG Scale=1.0 Shift=0.0 PPM Start=-3.1207465171441986 PPM End=12.528391440425866
 Name=alanine Abbr=Ala Scale=1.0 Shift=0.0 PPM Start=-3.1207465171441986 PPM End=12.528391440425866
 Name=choline-trimethyl Abbr=Cho Scale=1.0 Shift=0.0 PPM Start=-3.1207465171441986 PPM End=12.528391440425866
 Name=creatine Abbr=Cr Scale=1.0 Shift=0.0 PPM Start=-3.1207465171441986 PPM End=12.528391440425866
 Name=ethanolamine Abbr=ETA Scale=1.0 Shift=0.0 PPM Start=-3.1207465171441986 PPM End=12.528391440425866
 Name=gaba Abbr=GABA Scale=1.0 Shift=0.0 PPM Start=-3.1207465171441986 PPM End=12.528391440425866
 Name=glucose-beta Abbr=Glc Scale=1.0 Shift=0.0 PPM Start=-3.1207465171441986 PPM End=12.528391440425866
 Name=glutamate Abbr=Glu Scale=1.0 Shift=0.0 PPM Start=-3.1207465171441986 PPM End=12.528391440425866
 Name=glutamine Abbr=Gln Scale=1.0 Shift=0.0 PPM Start=-3.1207465171441986 PPM End=12.528391440425866
 Name=glycine Abbr=Gly Scale=1.0 Shift=0.0 PPM Start=-3.1207465171441986 PPM End=12.528391440425866
 Name=lactate Abbr=Lac Scale=1.0 Shift=0.0 PPM Start=-3.1207465171441986 PPM End=12.528391440425866
 Name=myo-inositol Abbr=mI Scale=1.0 Shift=0.0 PPM Start=-3.1207465171441986 PPM End=12.528391440425866
 Name=n-acetylaspartate Abbr=NAA Scale=1.0 Shift=0.0 PPM Start=-3.1207465171441986 PPM End=12.528391440425866
 Name=phosphocreatine Abbr=PCr Scale=1.0 Shift=0.0 PPM Start=-3.1207465171441986 PPM End=12.528391440425866
 Name=phosphorylcholine-trimethyl Abbr=PCho Scale=1.0 Shift=0.0 PPM Start=-3.1207465171441986 PPM End=12.528391440425866
 Name=phosphorylethanolamine Abbr=PE Scale=1.0 Shift=0.0 PPM Start=-3.1207465171441986 PPM End=12.528391440425866
 Name=pyruvate Abbr=Pyr Scale=1.0 Shift=0.0 PPM Start=-3.1207465171441986 PPM End=12.528391440425866
 Name=taurine Abbr=Tau Scale=1.0 Shift=0.0 PPM Start=-3.1207465171441986 PPM End=12.528391440425866
 Name=glutathione-glutamate+glutathione-glycine-cysteine Abbr=GSH Scale=1.0 Shift=0.0 PPM Start=-3.1207565171441987 PPM End=12.528
   Mixture of [metab*scale] = glutathione-glutamate*1.000000 + glutathione-glycine-cysteine*1.000000
 
 ===========================================================================
 This LCModel format RAW file was created using the 
 Vespa-Simulation spectral simulation program using 
 the following settings and parameters 
 
 Sweep Width = 2000.0 Hz 
 Vector Size = 2048 points 
 Apodization = 10.0 Hz Gaussian broadening
 B0 Field    = 127.74 MHz 
 Ref Singlet = False
  
 $NMID ID='Glc'
 FMTDAT='(2E16.6)'
 VOLUME=1.0
 TRAMP=1.0
 $END
    6.687349E+00    7.877319E-03
    6.040884E+00    2.670177E+00
    4.245878E+00    4.715817E+00
    1.744048E+00    5.679697E+00
   -8.583258E-01    5.374273E+00
   -2.950395E+00    3.930781E+00
   -4.073671E+00    1.754623E+00
   -4.032951E+00   -5.903832E-01
   -2.932803E+00   -2.534864E+00
   -1.132709E+00   -3.650580E+00
    8.629797E-01   -3.751344E+00
    2.546570E+00   -2.923070E+00
    3.539743E+00   -1.479177E+00
    3.681616E+00    1.417093E-01
    3.051241E+00    1.503609E+00
    1.923279E+00    2.289605E+00
    6.742494E-01    2.375737E+00
   -3.305856E-01    1.845378E+00
   -8.370273E-01    9.453730E-01
   -7.617974E-01    9.351398E-04
   -1.994638E-01   -6.832466E-01
    6.205653E-01   -9.072358E-01
    1.410656E+00   -6.234158E-01
    1.910929E+00    6.227270E-02
    1.960233E+00    9.314527E-01
    1.534249E+00    1.721668E+00
    7.436140E-01    2.201056E+00
   -2.036716E-01    2.228938E+00
   -1.062290E+00    1.787872E+00
   -1.614555E+00    9.817256E-01
   -1.723516E+00    3.520123E-03
   -1.362258E+00   -9.159239E-01
   -6.149487E-01   -1.564547E+00
    3.478575E-01   -1.797013E+00
    1.311689E+00   -1.564260E+00
    2.067013E+00   -9.199056E-01
    2.454122E+00   -4.308707E-03
    2.394699E+00    9.884141E-01
    1.905255E+00    1.852465E+00
    1.090777E+00    2.413221E+00
    1.211543E-01    2.561973E+00
   -8.050372E-01    2.276999E+00
   -1.501541E+00    1.626732E+00
   -1.833157E+00    7.546915E-01
   -1.743713E+00   -1.509479E-01
   -1.268017E+00   -8.977328E-01
   -5.243443E-01   -1.330545E+00
    3.115624E-01   -1.366126E+00
    1.045917E+00   -1.011938E+00
    1.511266E+00   -3.647684E-01
    1.605788E+00    4.117890E-01
    1.317513E+00    1.126080E+00
    7.271624E-01    1.604891E+00
   -1.179789E-02    1.735808E+00
   -7.117806E-01    1.495067E+00
   -1.198429E+00    9.530166E-01
   -1.355148E+00    2.554563E-01
   -1.152527E+00   -4.145283E-01
   -6.551499E-01   -8.846632E-01
   -3.499069E-03   -1.038425E+00
    6.240189E-01   -8.450295E-01
    1.058997E+00   -3.663497E-01
    1.187593E+00    2.610018E-01
    9.800126E-01    8.634903E-01
    4.968794E-01    1.277646E+00
   -1.287641E-01    1.393659E+00
   -7.287776E-01    1.183573E+00
   -1.145489E+00    7.068047E-01
   -1.273656E+00    9.209851E-02
   -1.087058E+00   -4.986556E-01
   -6.430953E-01   -9.145569E-01
   -6.497036E-02   -1.055172E+00
    4.931008E-01   -8.955283E-01
    8.877693E-01   -4.899048E-01
    1.023661E+00    4.542971E-02
    8.765428E-01    5.652048E-01
    4.966244E-01    9.343298E-01
   -7.929068E-03    1.062697E+00
   -5.016677E-01    9.263832E-01
   -8.583221E-01    5.707354E-01
   -9.929337E-01    9.519557E-02
   -8.816229E-01   -3.751968E-01
   -5.644296E-01   -7.231298E-01
   -1.316495E-01   -8.687388E-01
    3.021402E-01   -7.879387E-01
    6.285504E-01   -5.153564E-01
    7.726985E-01   -1.321880E-01
    7.102863E-01    2.571423E-01
    4.707915E-01    5.529340E-01
    1.268451E-01    6.851095E-01
   -2.267110E-01    6.293262E-01
   -4.981515E-01    4.104747E-01
   -6.219851E-01    9.348418E-02
   -5.739805E-01   -2.353517E-01
   -3.750798E-01   -4.914613E-01
   -8.356487E-02   -6.133807E-01
    2.216423E-01   -5.770326E-01
    4.620791E-01   -3.999579E-01
    5.795908E-01   -1.347967E-01
    5.500986E-01    1.457909E-01
    3.880636E-01    3.683505E-01
    1.411403E-01    4.772711E-01
   -1.232732E-01    4.480161E-01
   -3.358561E-01    2.919711E-01
   -4.427332E-01    5.211178E-02
   -4.183447E-01   -2.089851E-01
   -2.706206E-01   -4.255289E-01
   -3.766425E-02   -5.448350E-01
    2.228729E-01   -5.397762E-01
    4.487170E-01   -4.143130E-01
    5.883649E-01   -2.010901E-01
    6.129476E-01    4.776782E-02
    5.220839E-01    2.742022E-01
    3.424347E-01    4.284249E-01
    1.197454E-01    4.803523E-01
   -9.315313E-02    4.254784E-01
   -2.493752E-01    2.843086E-01
   -3.187097E-01    9.569602E-02
   -2.934903E-01   -9.373136E-02
   -1.886704E-01   -2.413087E-01
   -3.634954E-02   -3.182102E-01
    1.234965E-01   -3.151947E-01
    2.534169E-01   -2.430566E-01
    3.275034E-01   -1.281106E-01
    3.367694E-01   -4.141956E-03
    2.898343E-01    9.693665E-02
    2.090398E-01    1.531527E-01
    1.233052E-01    1.574590E-01
    5.972263E-02    1.184193E-01
    3.615319E-02    5.669970E-02
    5.668125E-02   -1.520521E-03
    1.110576E-01   -3.237074E-02
    1.780604E-01   -2.122430E-02
    2.318547E-01    3.305715E-02
    2.495736E-01    1.176626E-01
    2.180927E-01    2.092408E-01
    1.381918E-01    2.802635E-01
    2.499723E-02    3.066624E-01
   -9.554992E-02    2.747341E-01
   -1.930922E-01    1.854264E-01
   -2.407923E-01    5.490996E-02
   -2.225305E-01   -8.887140E-02
   -1.375583E-01   -2.128176E-01
   -1.332372E-03   -2.868131E-01
    1.577449E-01   -2.913239E-01
    3.050011E-01   -2.224517E-01
    4.076813E-01   -9.318847E-02
    4.428878E-01    6.954385E-02
    4.030127E-01    2.312997E-01
    2.973879E-01    3.583293E-01
    1.497497E-01    4.255098E-01
   -7.749416E-03    4.219826E-01
   -1.425127E-01    3.531193E-01
   -2.290490E-01    2.384040E-01
   -2.546128E-01    1.059793E-01
   -2.212598E-01   -1.465798E-02
   -1.441016E-01   -9.980285E-02
   -4.641734E-02   -1.366925E-01
    4.689190E-02   -1.254488E-01
    1.156532E-01   -7.754134E-02
    1.489272E-01   -1.142566E-02
    1.465348E-01    5.315085E-02
    1.175655E-01    1.005835E-01
    7.648295E-02    1.230459E-01
    3.819559E-02    1.214981E-01
    1.360303E-02    1.040366E-01
    6.869428E-03    8.233685E-02
    1.503556E-02    6.742889E-02
    2.991241E-02    6.614059E-02
    4.138902E-02    7.922412E-02
    4.107221E-02    1.015885E-01
    2.507952E-02    1.243871E-01
   -4.806493E-03    1.381619E-01
   -4.184728E-02    1.359947E-01
