 Vespa-Simulation Mixed Metabolite Output
 This file was generated by Vespa-Simulation. You can learn about and download Vespa here:
https://github.com/vespa-mrs/vespa/tree/main/vespa

 
 Output Path/Filename = /home/stud/casperc/bhome/Project1(DeepFit)/DeepFit-data-generation/DeepFitData_TE_20_lw10_2048p
 Output Loop Values = (1,1,1)  ( Loop 1 = 10, Loop 2 = 10, Loop3 Inactive )
 Output Comment
 ---------------------------------------------------------------------------
 
 
 Experiment Information
 ---------------------------------------------------------------------------
 --- Experiment 18b0168e-f5f0-4bd4-8d52-da93aba06c60 ---
 Name: SyntheticDataSetDeepFitTE20
 Public: False
 Created: 2024-10-08T09:55:07
 Comment (abbr.): 
 PI: Casper Cappelen
 b0: 127.740000
 Peak Search PPM low/high: -15.000000 / 15.000000
 Blend tol. PPM/phase: 0.001500 / 50.000000
 Pulse seq.: 43be13ae-de9a-40a1-9a2d-c872d8bjs100 (PRESS Ideal)
 0 User static parameters: 
 22 Metabolites: 2-hydroxyglutarate, GPC-pcholine2, NAAG-truncated, alanine, choline-trimethyl, creatine, ethanolamine, gaba, glucose-beta, glutamate, glutamine, glutathione-glutamate, glutathione-glycine-cysteine, glycine, lactate, myo-inositol, n-acetylaspartate, phosphocreatine, phosphorylcholine-trimethyl, phosphorylethanolamine, pyruvate, taurine
 22 Simulations: (not shown)
 
 Metabolite Formatting Information
 ---------------------------------------------------------------------------
 Name=2-hydroxyglutarate Abbr=2HG Scale=1.0 Shift=0.0 PPM Start=-3.1207465171441986 PPM End=12.528391440425866
 Name=GPC-pcholine2 Abbr=GPC Scale=1.0 Shift=0.0 PPM Start=-3.1207465171441986 PPM End=12.528391440425866
 Name=NAAG-truncated Abbr=NAAG Scale=1.0 Shift=0.0 PPM Start=-3.1207465171441986 PPM End=12.528391440425866
 Name=alanine Abbr=Ala Scale=1.0 Shift=0.0 PPM Start=-3.1207465171441986 PPM End=12.528391440425866
 Name=choline-trimethyl Abbr=Cho Scale=1.0 Shift=0.0 PPM Start=-3.1207465171441986 PPM End=12.528391440425866
 Name=creatine Abbr=Cr Scale=1.0 Shift=0.0 PPM Start=-3.1207465171441986 PPM End=12.528391440425866
 Name=ethanolamine Abbr=ETA Scale=1.0 Shift=0.0 PPM Start=-3.1207465171441986 PPM End=12.528391440425866
 Name=gaba Abbr=GABA Scale=1.0 Shift=0.0 PPM Start=-3.1207465171441986 PPM End=12.528391440425866
 Name=glucose-beta Abbr=Glc Scale=1.0 Shift=0.0 PPM Start=-3.1207465171441986 PPM End=12.528391440425866
 Name=glutamate Abbr=Glu Scale=1.0 Shift=0.0 PPM Start=-3.1207465171441986 PPM End=12.528391440425866
 Name=glutamine Abbr=Gln Scale=1.0 Shift=0.0 PPM Start=-3.1207465171441986 PPM End=12.528391440425866
 Name=glycine Abbr=Gly Scale=1.0 Shift=0.0 PPM Start=-3.1207465171441986 PPM End=12.528391440425866
 Name=lactate Abbr=Lac Scale=1.0 Shift=0.0 PPM Start=-3.1207465171441986 PPM End=12.528391440425866
 Name=myo-inositol Abbr=mI Scale=1.0 Shift=0.0 PPM Start=-3.1207465171441986 PPM End=12.528391440425866
 Name=n-acetylaspartate Abbr=NAA Scale=1.0 Shift=0.0 PPM Start=-3.1207465171441986 PPM End=12.528391440425866
 Name=phosphocreatine Abbr=PCr Scale=1.0 Shift=0.0 PPM Start=-3.1207465171441986 PPM End=12.528391440425866
 Name=phosphorylcholine-trimethyl Abbr=PCho Scale=1.0 Shift=0.0 PPM Start=-3.1207465171441986 PPM End=12.528391440425866
 Name=phosphorylethanolamine Abbr=PE Scale=1.0 Shift=0.0 PPM Start=-3.1207465171441986 PPM End=12.528391440425866
 Name=pyruvate Abbr=Pyr Scale=1.0 Shift=0.0 PPM Start=-3.1207465171441986 PPM End=12.528391440425866
 Name=taurine Abbr=Tau Scale=1.0 Shift=0.0 PPM Start=-3.1207465171441986 PPM End=12.528391440425866
 Name=glutathione-glutamate+glutathione-glycine-cysteine Abbr=GSH Scale=1.0 Shift=0.0 PPM Start=-3.1207565171441987 PPM End=12.528
   Mixture of [metab*scale] = glutathione-glutamate*1.000000 + glutathione-glycine-cysteine*1.000000
 
 ===========================================================================
 This LCModel format RAW file was created using the 
 Vespa-Simulation spectral simulation program using 
 the following settings and parameters 
 
 Sweep Width = 2000.0 Hz 
 Vector Size = 2048 points 
 Apodization = 10.0 Hz Gaussian broadening
 B0 Field    = 127.74 MHz 
 Ref Singlet = False
  
 This data has been FFTd to be in the FREQUENCY domain
 
 $NMID ID='Glc'
 FMTDAT='(2E16.6)'
 VOLUME=1.0
 TRAMP=1.0
 $END
    2.889033E+01    3.843389E+01
    3.292296E+01    3.570060E+01
    3.603025E+01    3.187061E+01
    3.777940E+01    2.738787E+01
    3.798227E+01    2.290001E+01
    3.679719E+01    1.911143E+01
    3.473689E+01    1.658611E+01
    3.256005E+01    1.556282E+01
    3.106665E+01    1.585220E+01
    3.085841E+01    1.686347E+01
    3.214590E+01    1.776345E+01
    3.467270E+01    1.772050E+01
    3.778602E+01    1.615172E+01
    4.062950E+01    1.288999E+01
    4.239023E+01    8.217751E+00
    4.251579E+01    2.765093E+00
    4.083482E+01   -2.682784E+00
    3.755510E+01   -7.397002E+00
    3.315872E+01   -1.086767E+01
    2.824473E+01   -1.287801E+01
    2.337673E+01   -1.348746E+01
    1.897751E+01   -1.295089E+01
    1.528703E+01   -1.161422E+01
    1.237563E+01   -9.821790E+00
    1.019043E+01   -7.855978E+00
    8.610754E+00   -5.912663E+00
    7.495400E+00   -4.104500E+00
    6.713667E+00   -2.479482E+00
    6.160171E+00   -1.043554E+00
    5.757756E+00    2.198057E-01
    5.453822E+00    1.335879E+00
    5.214314E+00    2.330755E+00
    5.017928E+00    3.227638E+00
    4.851601E+00    4.045719E+00
    4.707410E+00    4.800305E+00
    4.580595E+00    5.503375E+00
    4.468329E+00    6.164187E+00
    4.368930E+00    6.789807E+00
    4.281324E+00    7.385539E+00
    4.204652E+00    7.955324E+00
    4.138013E+00    8.502105E+00
    4.080314E+00    9.028193E+00
    4.030261E+00    9.535592E+00
    3.986449E+00    1.002624E+01
    3.947521E+00    1.050215E+01
    3.912341E+00    1.096540E+01
    3.880100E+00    1.141809E+01
    3.850335E+00    1.186214E+01
    3.822852E+00    1.229921E+01
    3.797579E+00    1.273064E+01
    3.774421E+00    1.315748E+01
    3.753158E+00    1.358059E+01
    3.733417E+00    1.400081E+01
    3.714722E+00    1.441901E+01
    3.696581E+00    1.483621E+01
    3.678579E+00    1.525354E+01
    3.660433E+00    1.567220E+01
    3.642011E+00    1.609339E+01
    3.623307E+00    1.651828E+01
    3.604397E+00    1.694794E+01
    3.585387E+00    1.738336E+01
    3.566375E+00    1.782550E+01
    3.547431E+00    1.827526E+01
    3.528583E+00    1.873359E+01
    3.509827E+00    1.920145E+01
    3.491128E+00    1.967988E+01
    3.472430E+00    2.016998E+01
    3.453663E+00    2.067298E+01
    3.434750E+00    2.119021E+01
    3.415605E+00    2.172313E+01
    3.396139E+00    2.227339E+01
    3.376254E+00    2.284278E+01
    3.355849E+00    2.343335E+01
    3.334811E+00    2.404742E+01
    3.313019E+00    2.468764E+01
    3.290340E+00    2.535706E+01
    3.266631E+00    2.605929E+01
    3.241749E+00    2.679860E+01
    3.215575E+00    2.758019E+01
    3.188088E+00    2.841048E+01
    3.159523E+00    2.929755E+01
    3.130733E+00    3.025184E+01
    3.103922E+00    3.128688E+01
    3.084001E+00    3.242028E+01
    3.080907E+00    3.367439E+01
    3.113136E+00    3.507625E+01
    3.212473E+00    3.665575E+01
    3.429241E+00    3.844073E+01
    3.836334E+00    4.044792E+01
    4.529166E+00    4.266947E+01
    5.617931E+00    4.505673E+01
    7.209179E+00    4.750582E+01
    9.376393E+00    4.985181E+01
    1.212397E+01    5.187964E+01
    1.535457E+01    5.335689E+01
    1.885378E+01    5.408755E+01
    2.230529E+01    5.397649E+01
    2.534330E+01    5.308614E+01
    2.763660E+01    5.166339E+01
    2.898613E+01    5.011921E+01
    2.940832E+01    4.895574E+01
    2.917609E+01    4.865181E+01
    2.879797E+01    4.953227E+01
    2.893109E+01    5.165454E+01
    3.024105E+01    5.474508E+01
    3.323705E+01    5.820929E+01
    3.812011E+01    6.122322E+01
    4.468482E+01    6.289669E+01
    5.230841E+01    6.247717E+01
    6.004392E+01    5.954711E+01
    6.680779E+01    5.416011E+01
    7.162214E+01    4.687023E+01
    7.384972E+01    3.863432E+01
    7.335397E+01    3.060503E+01
    7.053544E+01    2.386770E+01
    6.623211E+01    1.919393E+01
    6.151327E+01    1.687945E+01
    5.742704E+01    1.670605E+01
    5.477092E+01    1.802829E+01
    5.394054E+01    1.995095E+01
    5.488361E+01    2.154368E+01
    5.715527E+01    2.203851E+01
    6.004752E+01    2.097004E+01
    6.275478E+01    1.823864E+01
    6.453821E+01    1.409645E+01
    6.485904E+01    9.070222E+00
    6.346217E+01    3.842696E+00
    6.040141E+01   -8.827564E-01
    5.600753E+01   -4.510122E+00
    5.080842E+01   -6.649722E+00
    4.541832E+01   -7.171905E+00
    4.041875E+01   -6.207432E+00
    3.625498E+01   -4.097211E+00
    3.316866E+01   -1.304810E+00
    3.117766E+01    1.687017E+00
    3.010328E+01    4.472459E+00
    2.963382E+01    6.792018E+00
    2.940693E+01    8.563980E+00
    2.909184E+01    9.876358E+00
    2.845480E+01    1.094593E+01
    2.739676E+01    1.205658E+01
    2.595886E+01    1.349171E+01
    2.429795E+01    1.547577E+01
    2.264074E+01    1.813673E+01
    2.122990E+01    2.149629E+01
    2.027669E+01    2.548672E+01
    1.993231E+01    2.998608E+01
    2.028313E+01    3.485835E+01
    2.136688E+01    3.998503E+01
    2.319981E+01    4.527945E+01
    2.580266E+01    5.068290E+01
    2.921617E+01    5.614935E+01
    3.350415E+01    6.162854E+01
    3.874938E+01    6.705528E+01
    4.505147E+01    7.234533E+01
    5.253271E+01    7.739031E+01
    6.134936E+01    8.203983E+01
    7.169480E+01    8.606285E+01
    8.377426E+01    8.909232E+01
    9.773413E+01    9.057384E+01
    1.135446E+02    8.975232E+01
    1.308591E+02    8.573144E+01
    1.488982E+02    7.762415E+01
    1.664170E+02    6.477940E+01
    1.818021E+02    4.703219E+01
    1.933085E+02    2.489698E+01
    1.993937E+02   -3.750783E-01
    1.990638E+02   -2.692122E+01
    1.921248E+02   -5.256212E+01
    1.792578E+02   -7.519434E+01
    1.618903E+02   -9.317031E+01
    1.419026E+02   -1.055600E+02
    1.212618E+02   -1.122315E+02
