 Vespa-Simulation Mixed Metabolite Output
 This file was generated by Vespa-Simulation. You can learn about and download Vespa here:
https://github.com/vespa-mrs/vespa/tree/main/vespa

 
 Output Path/Filename = /home/stud/casperc/bhome/Project1(DeepFit)/DeepFit-data-generation/DeepFitData_TE_20_lw10_2048p
 Output Loop Values = (1,1,1)  ( Loop 1 = 10, Loop 2 = 10, Loop3 Inactive )
 Output Comment
 ---------------------------------------------------------------------------
 
 
 Experiment Information
 ---------------------------------------------------------------------------
 --- Experiment 18b0168e-f5f0-4bd4-8d52-da93aba06c60 ---
 Name: SyntheticDataSetDeepFitTE20
 Public: False
 Created: 2024-10-08T09:55:07
 Comment (abbr.): 
 PI: Casper Cappelen
 b0: 127.740000
 Peak Search PPM low/high: -15.000000 / 15.000000
 Blend tol. PPM/phase: 0.001500 / 50.000000
 Pulse seq.: 43be13ae-de9a-40a1-9a2d-c872d8bjs100 (PRESS Ideal)
 0 User static parameters: 
 22 Metabolites: 2-hydroxyglutarate, GPC-pcholine2, NAAG-truncated, alanine, choline-trimethyl, creatine, ethanolamine, gaba, glucose-beta, glutamate, glutamine, glutathione-glutamate, glutathione-glycine-cysteine, glycine, lactate, myo-inositol, n-acetylaspartate, phosphocreatine, phosphorylcholine-trimethyl, phosphorylethanolamine, pyruvate, taurine
 22 Simulations: (not shown)
 
 Metabolite Formatting Information
 ---------------------------------------------------------------------------
 Name=2-hydroxyglutarate Abbr=2HG Scale=1.0 Shift=0.0 PPM Start=-3.1207465171441986 PPM End=12.528391440425866
 Name=GPC-pcholine2 Abbr=GPC Scale=1.0 Shift=0.0 PPM Start=-3.1207465171441986 PPM End=12.528391440425866
 Name=NAAG-truncated Abbr=NAAG Scale=1.0 Shift=0.0 PPM Start=-3.1207465171441986 PPM End=12.528391440425866
 Name=alanine Abbr=Ala Scale=1.0 Shift=0.0 PPM Start=-3.1207465171441986 PPM End=12.528391440425866
 Name=choline-trimethyl Abbr=Cho Scale=1.0 Shift=0.0 PPM Start=-3.1207465171441986 PPM End=12.528391440425866
 Name=creatine Abbr=Cr Scale=1.0 Shift=0.0 PPM Start=-3.1207465171441986 PPM End=12.528391440425866
 Name=ethanolamine Abbr=ETA Scale=1.0 Shift=0.0 PPM Start=-3.1207465171441986 PPM End=12.528391440425866
 Name=gaba Abbr=GABA Scale=1.0 Shift=0.0 PPM Start=-3.1207465171441986 PPM End=12.528391440425866
 Name=glucose-beta Abbr=Glc Scale=1.0 Shift=0.0 PPM Start=-3.1207465171441986 PPM End=12.528391440425866
 Name=glutamate Abbr=Glu Scale=1.0 Shift=0.0 PPM Start=-3.1207465171441986 PPM End=12.528391440425866
 Name=glutamine Abbr=Gln Scale=1.0 Shift=0.0 PPM Start=-3.1207465171441986 PPM End=12.528391440425866
 Name=glycine Abbr=Gly Scale=1.0 Shift=0.0 PPM Start=-3.1207465171441986 PPM End=12.528391440425866
 Name=lactate Abbr=Lac Scale=1.0 Shift=0.0 PPM Start=-3.1207465171441986 PPM End=12.528391440425866
 Name=myo-inositol Abbr=mI Scale=1.0 Shift=0.0 PPM Start=-3.1207465171441986 PPM End=12.528391440425866
 Name=n-acetylaspartate Abbr=NAA Scale=1.0 Shift=0.0 PPM Start=-3.1207465171441986 PPM End=12.528391440425866
 Name=phosphocreatine Abbr=PCr Scale=1.0 Shift=0.0 PPM Start=-3.1207465171441986 PPM End=12.528391440425866
 Name=phosphorylcholine-trimethyl Abbr=PCho Scale=1.0 Shift=0.0 PPM Start=-3.1207465171441986 PPM End=12.528391440425866
 Name=phosphorylethanolamine Abbr=PE Scale=1.0 Shift=0.0 PPM Start=-3.1207465171441986 PPM End=12.528391440425866
 Name=pyruvate Abbr=Pyr Scale=1.0 Shift=0.0 PPM Start=-3.1207465171441986 PPM End=12.528391440425866
 Name=taurine Abbr=Tau Scale=1.0 Shift=0.0 PPM Start=-3.1207465171441986 PPM End=12.528391440425866
 Name=glutathione-glutamate+glutathione-glycine-cysteine Abbr=GSH Scale=1.0 Shift=0.0 PPM Start=-3.1207565171441987 PPM End=12.528
   Mixture of [metab*scale] = glutathione-glutamate*1.000000 + glutathione-glycine-cysteine*1.000000
 
 ===========================================================================
 This LCModel format RAW file was created using the 
 Vespa-Simulation spectral simulation program using 
 the following settings and parameters 
 
 Sweep Width = 2000.0 Hz 
 Vector Size = 2048 points 
 Apodization = 10.0 Hz Gaussian broadening
 B0 Field    = 127.74 MHz 
 Ref Singlet = False
  
 $NMID ID='Gln'
 FMTDAT='(2E16.6)'
 VOLUME=1.0
 TRAMP=1.0
 $END
    6.648551E+00    1.452317E-02
    4.022726E+00    1.792128E+00
   -1.504731E+00    2.361412E+00
   -5.075112E+00    1.357177E+00
   -3.843758E+00   -3.753326E-01
    5.522225E-01   -1.328873E+00
    3.818983E+00   -5.603082E-01
    3.123624E+00    1.340575E+00
   -5.302007E-01    2.548224E+00
   -3.685760E+00    1.583184E+00
   -3.828795E+00   -1.145722E+00
   -1.386199E+00   -3.434260E+00
    1.257772E+00   -3.203682E+00
    2.243359E+00   -5.502394E-01
    1.610362E+00    2.160512E+00
    5.836414E-01    2.453830E+00
    4.312360E-02    1.508886E-01
   -7.296646E-02   -2.400253E+00
   -1.365784E-01   -2.594682E+00
   -1.127905E-01   -1.227611E-01
    2.791970E-01    2.752128E+00
    8.861364E-01    3.449286E+00
    9.930493E-01    1.546913E+00
    7.975536E-02   -9.939955E-01
   -1.408279E+00   -1.940545E+00
   -2.285303E+00   -9.385724E-01
   -1.737495E+00    4.637785E-01
   -1.587456E-01    7.048719E-01
    1.197512E+00   -1.844002E-01
    1.386979E+00   -9.305756E-01
    5.595646E-01   -6.963973E-01
   -3.555603E-01   -2.940598E-02
   -5.961937E-01   -1.628180E-02
   -1.355825E-01   -7.604884E-01
    5.455856E-01   -1.107776E+00
    1.005168E+00   -4.528515E-02
    1.064568E+00    1.851044E+00
    6.753083E-01    2.734950E+00
   -1.382247E-01    1.421309E+00
   -1.089347E+00   -1.144351E+00
   -1.572533E+00   -2.608967E+00
   -1.099846E+00   -1.531224E+00
    8.854921E-02    1.086914E+00
    1.012851E+00    2.702809E+00
    8.027784E-01    1.704261E+00
   -3.591192E-01   -1.037292E+00
   -1.278360E+00   -3.052377E+00
   -9.043321E-01   -2.634663E+00
    5.358620E-01   -3.210866E-01
    1.681699E+00    1.824029E+00
    1.412653E+00    2.200334E+00
    3.200196E-02    9.322172E-01
   -1.034994E+00   -6.073018E-01
   -7.506100E-01   -1.216738E+00
    4.309196E-01   -7.436056E-01
    1.074009E+00    1.799809E-01
    3.472988E-01    9.027541E-01
   -1.044187E+00    1.138119E+00
   -1.609151E+00    8.352405E-01
   -6.933533E-01    4.260671E-02
    7.925718E-01   -9.516693E-01
    1.334673E+00   -1.538256E+00
    4.233076E-01   -1.168097E+00
   -9.235801E-01    3.576402E-02
   -1.259181E+00    1.167335E+00
   -2.223238E-01    1.260142E+00
    1.136413E+00    2.271235E-01
    1.496885E+00   -9.777410E-01
    6.048711E-01   -1.237654E+00
   -5.857016E-01   -3.428276E-01
   -9.942382E-01    8.403423E-01
   -4.753703E-01    1.260288E+00
    2.220947E-01    6.852172E-01
    3.906774E-01   -1.975673E-01
    6.778207E-02   -5.949686E-01
   -2.056411E-01   -3.881159E-01
   -1.354153E-01   -7.223878E-02
    2.020153E-02   -5.411437E-02
   -9.862112E-02   -1.943060E-01
   -3.893376E-01   -1.006647E-01
   -3.661381E-01    2.625103E-01
    1.918555E-01    4.537105E-01
    8.385839E-01    1.020982E-01
    8.644691E-01   -5.451166E-01
    1.031546E-01   -7.891447E-01
   -7.878674E-01   -2.419848E-01
   -9.515081E-01    6.701759E-01
   -2.209880E-01    1.077720E+00
    6.885513E-01    5.585744E-01
    9.041813E-01   -4.073247E-01
    2.650427E-01   -9.203102E-01
   -5.676571E-01   -5.662813E-01
   -8.271528E-01    2.122756E-01
   -3.859653E-01    6.346610E-01
    2.279854E-01    3.870208E-01
    4.624302E-01   -1.446345E-01
    2.730228E-01   -3.887354E-01
    2.151616E-02   -2.099820E-01
   -2.958986E-02    4.518994E-02
    1.602572E-02    4.827709E-02
   -6.767948E-02   -1.111900E-01
   -2.508944E-01   -9.285551E-02
   -2.507813E-01    2.037817E-01
    7.771129E-02    4.557466E-01
    4.684161E-01    2.872953E-01
    4.761110E-01   -2.400817E-01
   -1.034780E-02   -6.199605E-01
   -5.721168E-01   -4.277832E-01
   -6.526589E-01    1.945855E-01
   -1.415090E-01    6.503902E-01
    4.876904E-01    4.949585E-01
    6.493026E-01   -1.106179E-01
    2.299407E-01   -5.783151E-01
   -3.275684E-01   -4.963793E-01
   -5.033046E-01   -1.130421E-02
   -2.111553E-01    3.827746E-01
    1.837463E-01    3.700123E-01
    3.014161E-01    7.858188E-02
    1.252389E-01   -1.462410E-01
   -6.645418E-02   -1.415476E-01
   -7.122806E-02   -4.091559E-02
    2.375167E-02   -3.018442E-02
    1.007506E-02   -9.194993E-02
   -1.375434E-01   -5.655858E-02
   -2.126617E-01    1.292988E-01
   -4.497732E-02    2.798395E-01
    2.499282E-01    1.721790E-01
    3.600329E-01   -1.591635E-01
    1.240304E-01   -4.032835E-01
   -2.601105E-01   -2.875887E-01
   -4.179342E-01    1.122375E-01
   -1.865710E-01    4.227222E-01
    2.122258E-01    3.472110E-01
    3.998936E-01   -3.216672E-02
    2.215280E-01   -3.455859E-01
   -1.214822E-01   -3.149602E-01
   -3.038165E-01   -1.623867E-02
   -2.022564E-01    2.354200E-01
    2.509017E-02    2.249082E-01
    1.499562E-01    2.876324E-02
    1.101933E-01   -1.185830E-01
    2.070916E-02   -9.678529E-02
   -6.650420E-03    8.725126E-04
    7.254655E-03    2.228288E-02
   -2.473054E-02   -4.673233E-02
   -1.046431E-01   -8.019527E-02
   -1.234905E-01    9.580871E-03
   -2.808364E-03    1.429244E-01
    1.750390E-01    1.559268E-01
    2.259418E-01   -6.433266E-04
    6.564315E-02   -1.841767E-01
   -1.746084E-01   -2.031262E-01
   -2.645776E-01   -2.467294E-02
   -1.112123E-01    1.837796E-01
    1.393595E-01    2.253238E-01
    2.475917E-01    7.092748E-02
    1.209596E-01   -1.233973E-01
   -1.028069E-01   -1.845535E-01
   -2.080216E-01   -8.746911E-02
   -1.178210E-01    4.805847E-02
    5.014304E-02    1.000525E-01
    1.282280E-01    5.815089E-02
    7.146788E-02   -1.765032E-03
   -2.288322E-02   -2.403301E-02
   -4.622833E-02   -2.486949E-02
    2.686325E-03   -4.122674E-02
    3.889657E-02   -6.093441E-02
    8.442214E-03   -3.314425E-02
   -4.598092E-02    5.322474E-02
   -4.446941E-02    1.291391E-01
    2.477839E-02    1.077626E-01
    8.427079E-02   -1.329371E-02
    5.615226E-02   -1.308962E-01
   -4.364181E-02   -1.326940E-01
