 Vespa-Simulation Mixed Metabolite Output
 This file was generated by Vespa-Simulation. You can learn about and download Vespa here:
https://github.com/vespa-mrs/vespa/tree/main/vespa

 
 Output Path/Filename = /home/stud/casperc/bhome/Project1(DeepFit)/DeepFit-data-generation/DeepFitData_TE_20_lw10_2048p
 Output Loop Values = (1,1,1)  ( Loop 1 = 10, Loop 2 = 10, Loop3 Inactive )
 Output Comment
 ---------------------------------------------------------------------------
 
 
 Experiment Information
 ---------------------------------------------------------------------------
 --- Experiment 18b0168e-f5f0-4bd4-8d52-da93aba06c60 ---
 Name: SyntheticDataSetDeepFitTE20
 Public: False
 Created: 2024-10-08T09:55:07
 Comment (abbr.): 
 PI: Casper Cappelen
 b0: 127.740000
 Peak Search PPM low/high: -15.000000 / 15.000000
 Blend tol. PPM/phase: 0.001500 / 50.000000
 Pulse seq.: 43be13ae-de9a-40a1-9a2d-c872d8bjs100 (PRESS Ideal)
 0 User static parameters: 
 22 Metabolites: 2-hydroxyglutarate, GPC-pcholine2, NAAG-truncated, alanine, choline-trimethyl, creatine, ethanolamine, gaba, glucose-beta, glutamate, glutamine, glutathione-glutamate, glutathione-glycine-cysteine, glycine, lactate, myo-inositol, n-acetylaspartate, phosphocreatine, phosphorylcholine-trimethyl, phosphorylethanolamine, pyruvate, taurine
 22 Simulations: (not shown)
 
 Metabolite Formatting Information
 ---------------------------------------------------------------------------
 Name=2-hydroxyglutarate Abbr=2HG Scale=1.0 Shift=0.0 PPM Start=-3.1207465171441986 PPM End=12.528391440425866
 Name=GPC-pcholine2 Abbr=GPC Scale=1.0 Shift=0.0 PPM Start=-3.1207465171441986 PPM End=12.528391440425866
 Name=NAAG-truncated Abbr=NAAG Scale=1.0 Shift=0.0 PPM Start=-3.1207465171441986 PPM End=12.528391440425866
 Name=alanine Abbr=Ala Scale=1.0 Shift=0.0 PPM Start=-3.1207465171441986 PPM End=12.528391440425866
 Name=choline-trimethyl Abbr=Cho Scale=1.0 Shift=0.0 PPM Start=-3.1207465171441986 PPM End=12.528391440425866
 Name=creatine Abbr=Cr Scale=1.0 Shift=0.0 PPM Start=-3.1207465171441986 PPM End=12.528391440425866
 Name=ethanolamine Abbr=ETA Scale=1.0 Shift=0.0 PPM Start=-3.1207465171441986 PPM End=12.528391440425866
 Name=gaba Abbr=GABA Scale=1.0 Shift=0.0 PPM Start=-3.1207465171441986 PPM End=12.528391440425866
 Name=glucose-beta Abbr=Glc Scale=1.0 Shift=0.0 PPM Start=-3.1207465171441986 PPM End=12.528391440425866
 Name=glutamate Abbr=Glu Scale=1.0 Shift=0.0 PPM Start=-3.1207465171441986 PPM End=12.528391440425866
 Name=glutamine Abbr=Gln Scale=1.0 Shift=0.0 PPM Start=-3.1207465171441986 PPM End=12.528391440425866
 Name=glycine Abbr=Gly Scale=1.0 Shift=0.0 PPM Start=-3.1207465171441986 PPM End=12.528391440425866
 Name=lactate Abbr=Lac Scale=1.0 Shift=0.0 PPM Start=-3.1207465171441986 PPM End=12.528391440425866
 Name=myo-inositol Abbr=mI Scale=1.0 Shift=0.0 PPM Start=-3.1207465171441986 PPM End=12.528391440425866
 Name=n-acetylaspartate Abbr=NAA Scale=1.0 Shift=0.0 PPM Start=-3.1207465171441986 PPM End=12.528391440425866
 Name=phosphocreatine Abbr=PCr Scale=1.0 Shift=0.0 PPM Start=-3.1207465171441986 PPM End=12.528391440425866
 Name=phosphorylcholine-trimethyl Abbr=PCho Scale=1.0 Shift=0.0 PPM Start=-3.1207465171441986 PPM End=12.528391440425866
 Name=phosphorylethanolamine Abbr=PE Scale=1.0 Shift=0.0 PPM Start=-3.1207465171441986 PPM End=12.528391440425866
 Name=pyruvate Abbr=Pyr Scale=1.0 Shift=0.0 PPM Start=-3.1207465171441986 PPM End=12.528391440425866
 Name=taurine Abbr=Tau Scale=1.0 Shift=0.0 PPM Start=-3.1207465171441986 PPM End=12.528391440425866
 Name=glutathione-glutamate+glutathione-glycine-cysteine Abbr=GSH Scale=1.0 Shift=0.0 PPM Start=-3.1207565171441987 PPM End=12.528
   Mixture of [metab*scale] = glutathione-glutamate*1.000000 + glutathione-glycine-cysteine*1.000000
 
 ===========================================================================
 This LCModel format RAW file was created using the 
 Vespa-Simulation spectral simulation program using 
 the following settings and parameters 
 
 Sweep Width = 2000.0 Hz 
 Vector Size = 2048 points 
 Apodization = 10.0 Hz Gaussian broadening
 B0 Field    = 127.74 MHz 
 Ref Singlet = False
  
 This data has been FFTd to be in the FREQUENCY domain
 
 $NMID ID='Gln'
 FMTDAT='(2E16.6)'
 VOLUME=1.0
 TRAMP=1.0
 $END
    3.310304E+00    4.000157E+00
    3.310542E+00    4.039931E+00
    3.310777E+00    4.080054E+00
    3.311012E+00    4.120540E+00
    3.311251E+00    4.161404E+00
    3.311499E+00    4.202656E+00
    3.311764E+00    4.244305E+00
    3.312050E+00    4.286357E+00
    3.312357E+00    4.328818E+00
    3.312685E+00    4.371695E+00
    3.313032E+00    4.414995E+00
    3.313395E+00    4.458731E+00
    3.313772E+00    4.502915E+00
    3.314163E+00    4.547560E+00
    3.314568E+00    4.592683E+00
    3.314990E+00    4.638295E+00
    3.315430E+00    4.684411E+00
    3.315889E+00    4.731043E+00
    3.316366E+00    4.778204E+00
    3.316860E+00    4.825910E+00
    3.317371E+00    4.874177E+00
    3.317898E+00    4.923025E+00
    3.318442E+00    4.972473E+00
    3.319007E+00    5.022542E+00
    3.319599E+00    5.073250E+00
    3.320222E+00    5.124615E+00
    3.320882E+00    5.176653E+00
    3.321579E+00    5.229380E+00
    3.322314E+00    5.282813E+00
    3.323085E+00    5.336969E+00
    3.323888E+00    5.391873E+00
    3.324721E+00    5.447549E+00
    3.325585E+00    5.504025E+00
    3.326482E+00    5.561330E+00
    3.327414E+00    5.619495E+00
    3.328387E+00    5.678547E+00
    3.329406E+00    5.738516E+00
    3.330473E+00    5.799429E+00
    3.331592E+00    5.861318E+00
    3.332764E+00    5.924213E+00
    3.333990E+00    5.988151E+00
    3.335275E+00    6.053167E+00
    3.336620E+00    6.119300E+00
    3.338030E+00    6.186589E+00
    3.339510E+00    6.255075E+00
    3.341062E+00    6.324799E+00
    3.342689E+00    6.395805E+00
    3.344394E+00    6.468140E+00
    3.346176E+00    6.541853E+00
    3.348039E+00    6.616997E+00
    3.349985E+00    6.693630E+00
    3.352018E+00    6.771810E+00
    3.354143E+00    6.851596E+00
    3.356362E+00    6.933050E+00
    3.358677E+00    7.016232E+00
    3.361081E+00    7.101207E+00
    3.363563E+00    7.188041E+00
    3.366097E+00    7.276810E+00
    3.368649E+00    7.367604E+00
    3.371170E+00    7.460535E+00
    3.373609E+00    7.555745E+00
    3.375920E+00    7.653419E+00
    3.378076E+00    7.753781E+00
    3.380094E+00    7.857092E+00
    3.382048E+00    7.963633E+00
    3.384076E+00    8.073679E+00
    3.386373E+00    8.187471E+00
    3.389171E+00    8.305189E+00
    3.392708E+00    8.426948E+00
    3.397191E+00    8.552799E+00
    3.402772E+00    8.682748E+00
    3.409531E+00    8.816789E+00
    3.417475E+00    8.954929E+00
    3.426538E+00    9.097214E+00
    3.436594E+00    9.243756E+00
    3.447467E+00    9.394756E+00
    3.458962E+00    9.550528E+00
    3.470896E+00    9.711511E+00
    3.483147E+00    9.878260E+00
    3.495680E+00    1.005142E+01
    3.508561E+00    1.023167E+01
    3.521921E+00    1.041971E+01
    3.535921E+00    1.061624E+01
    3.550706E+00    1.082198E+01
    3.566401E+00    1.103778E+01
    3.583159E+00    1.126464E+01
    3.601229E+00    1.150373E+01
    3.621029E+00    1.175637E+01
    3.643182E+00    1.202396E+01
    3.668478E+00    1.230791E+01
    3.697795E+00    1.260959E+01
    3.731990E+00    1.293040E+01
    3.771827E+00    1.327189E+01
    3.817963E+00    1.363591E+01
    3.871024E+00    1.402485E+01
    3.931739E+00    1.444180E+01
    4.001141E+00    1.489071E+01
    4.080800E+00    1.537658E+01
    4.173127E+00    1.590562E+01
    4.281817E+00    1.648553E+01
    4.412530E+00    1.712574E+01
    4.573982E+00    1.783761E+01
    4.779560E+00    1.863428E+01
    5.049492E+00    1.952973E+01
    5.413305E+00    2.053647E+01
    5.911825E+00    2.166137E+01
    6.597383E+00    2.289922E+01
    7.530465E+00    2.422495E+01
    8.771234E+00    2.558643E+01
    1.036570E+01    2.690151E+01
    1.232891E+01    2.806330E+01
    1.463066E+01    2.895621E+01
    1.719143E+01    2.948123E+01
    1.989488E+01    2.958326E+01
    2.261787E+01    2.926837E+01
    2.526957E+01    2.859918E+01
    2.782316E+01    2.766359E+01
    3.032138E+01    2.652494E+01
    3.284574E+01    2.517495E+01
    3.545617E+01    2.351530E+01
    3.812617E+01    2.138508E+01
    4.070677E+01    1.862987E+01
    4.294383E+01    1.518511E+01
    4.454874E+01    1.113424E+01
    4.529476E+01    6.710093E+00
    4.509561E+01    2.234354E+00
    4.402982E+01   -1.979183E+00
    4.230023E+01   -5.713848E+00
    4.015028E+01   -8.892541E+00
    3.777806E+01   -1.155903E+01
    3.528661E+01   -1.381419E+01
    3.268717E+01   -1.574298E+01
    2.994461E+01   -1.736700E+01
    2.703613E+01   -1.864000E+01
    2.399329E+01   -1.948033E+01
    2.091104E+01   -1.981832E+01
    1.792577E+01   -1.963456E+01
    1.517769E+01   -1.897448E+01
    1.277564E+01   -1.793797E+01
    1.077701E+01   -1.665359E+01
    9.185839E+00   -1.524989E+01
    7.964616E+00   -1.383376E+01
    7.052199E+00   -1.248003E+01
    6.380689E+00   -1.123133E+01
    5.887395E+00   -1.010430E+01
    5.520957E+00   -9.098154E+00
    5.242768E+00   -8.202553E+00
    5.025588E+00   -7.403395E+00
    4.851003E+00   -6.686339E+00
    4.706847E+00   -6.038524E+00
    4.585087E+00   -5.449141E+00
    4.480309E+00   -4.909383E+00
    4.388710E+00   -4.412139E+00
    4.307473E+00   -3.951631E+00
    4.234398E+00   -3.523073E+00
    4.167699E+00   -3.122386E+00
    4.105923E+00   -2.745977E+00
    4.047944E+00   -2.390580E+00
    3.993012E+00   -2.053193E+00
    3.940799E+00   -1.731089E+00
    3.891417E+00   -1.421907E+00
    3.845341E+00   -1.123782E+00
    3.803252E+00   -8.354451E-01
    3.765801E+00   -5.562499E-01
    3.733371E+00   -2.860602E-01
    3.705906E+00   -2.502579E-02
    3.682894E+00    2.267013E-01
    3.663494E+00    4.692149E-01
    3.646784E+00    7.029766E-01
    3.632010E+00    9.287730E-01
    3.618751E+00    1.147535E+00
    3.606937E+00    1.360109E+00
    3.596720E+00    1.567073E+00
