 Vespa-Simulation Mixed Metabolite Output
 This file was generated by Vespa-Simulation. You can learn about and download Vespa here:
https://github.com/vespa-mrs/vespa/tree/main/vespa

 
 Output Path/Filename = /home/stud/casperc/bhome/Project1(DeepFit)/DeepFit-data-generation/DeepFitData_TE_20_lw10_2048p
 Output Loop Values = (1,1,1)  ( Loop 1 = 10, Loop 2 = 10, Loop3 Inactive )
 Output Comment
 ---------------------------------------------------------------------------
 
 
 Experiment Information
 ---------------------------------------------------------------------------
 --- Experiment 18b0168e-f5f0-4bd4-8d52-da93aba06c60 ---
 Name: SyntheticDataSetDeepFitTE20
 Public: False
 Created: 2024-10-08T09:55:07
 Comment (abbr.): 
 PI: Casper Cappelen
 b0: 127.740000
 Peak Search PPM low/high: -15.000000 / 15.000000
 Blend tol. PPM/phase: 0.001500 / 50.000000
 Pulse seq.: 43be13ae-de9a-40a1-9a2d-c872d8bjs100 (PRESS Ideal)
 0 User static parameters: 
 22 Metabolites: 2-hydroxyglutarate, GPC-pcholine2, NAAG-truncated, alanine, choline-trimethyl, creatine, ethanolamine, gaba, glucose-beta, glutamate, glutamine, glutathione-glutamate, glutathione-glycine-cysteine, glycine, lactate, myo-inositol, n-acetylaspartate, phosphocreatine, phosphorylcholine-trimethyl, phosphorylethanolamine, pyruvate, taurine
 22 Simulations: (not shown)
 
 Metabolite Formatting Information
 ---------------------------------------------------------------------------
 Name=2-hydroxyglutarate Abbr=2HG Scale=1.0 Shift=0.0 PPM Start=-3.1207465171441986 PPM End=12.528391440425866
 Name=GPC-pcholine2 Abbr=GPC Scale=1.0 Shift=0.0 PPM Start=-3.1207465171441986 PPM End=12.528391440425866
 Name=NAAG-truncated Abbr=NAAG Scale=1.0 Shift=0.0 PPM Start=-3.1207465171441986 PPM End=12.528391440425866
 Name=alanine Abbr=Ala Scale=1.0 Shift=0.0 PPM Start=-3.1207465171441986 PPM End=12.528391440425866
 Name=choline-trimethyl Abbr=Cho Scale=1.0 Shift=0.0 PPM Start=-3.1207465171441986 PPM End=12.528391440425866
 Name=creatine Abbr=Cr Scale=1.0 Shift=0.0 PPM Start=-3.1207465171441986 PPM End=12.528391440425866
 Name=ethanolamine Abbr=ETA Scale=1.0 Shift=0.0 PPM Start=-3.1207465171441986 PPM End=12.528391440425866
 Name=gaba Abbr=GABA Scale=1.0 Shift=0.0 PPM Start=-3.1207465171441986 PPM End=12.528391440425866
 Name=glucose-beta Abbr=Glc Scale=1.0 Shift=0.0 PPM Start=-3.1207465171441986 PPM End=12.528391440425866
 Name=glutamate Abbr=Glu Scale=1.0 Shift=0.0 PPM Start=-3.1207465171441986 PPM End=12.528391440425866
 Name=glutamine Abbr=Gln Scale=1.0 Shift=0.0 PPM Start=-3.1207465171441986 PPM End=12.528391440425866
 Name=glycine Abbr=Gly Scale=1.0 Shift=0.0 PPM Start=-3.1207465171441986 PPM End=12.528391440425866
 Name=lactate Abbr=Lac Scale=1.0 Shift=0.0 PPM Start=-3.1207465171441986 PPM End=12.528391440425866
 Name=myo-inositol Abbr=mI Scale=1.0 Shift=0.0 PPM Start=-3.1207465171441986 PPM End=12.528391440425866
 Name=n-acetylaspartate Abbr=NAA Scale=1.0 Shift=0.0 PPM Start=-3.1207465171441986 PPM End=12.528391440425866
 Name=phosphocreatine Abbr=PCr Scale=1.0 Shift=0.0 PPM Start=-3.1207465171441986 PPM End=12.528391440425866
 Name=phosphorylcholine-trimethyl Abbr=PCho Scale=1.0 Shift=0.0 PPM Start=-3.1207465171441986 PPM End=12.528391440425866
 Name=phosphorylethanolamine Abbr=PE Scale=1.0 Shift=0.0 PPM Start=-3.1207465171441986 PPM End=12.528391440425866
 Name=pyruvate Abbr=Pyr Scale=1.0 Shift=0.0 PPM Start=-3.1207465171441986 PPM End=12.528391440425866
 Name=taurine Abbr=Tau Scale=1.0 Shift=0.0 PPM Start=-3.1207465171441986 PPM End=12.528391440425866
 Name=glutathione-glutamate+glutathione-glycine-cysteine Abbr=GSH Scale=1.0 Shift=0.0 PPM Start=-3.1207565171441987 PPM End=12.528
   Mixture of [metab*scale] = glutathione-glutamate*1.000000 + glutathione-glycine-cysteine*1.000000
 
 ===========================================================================
 This LCModel format RAW file was created using the 
 Vespa-Simulation spectral simulation program using 
 the following settings and parameters 
 
 Sweep Width = 2000.0 Hz 
 Vector Size = 2048 points 
 Apodization = 10.0 Hz Gaussian broadening
 B0 Field    = 127.74 MHz 
 Ref Singlet = False
  
 $NMID ID='Glu'
 FMTDAT='(2E16.6)'
 VOLUME=1.0
 TRAMP=1.0
 $END
    4.711103E+00    1.482782E-02
    2.886495E+00    3.558292E+00
   -9.504163E-01    4.096352E+00
   -3.409827E+00    1.366818E+00
   -2.474166E+00   -1.950030E+00
    6.870935E-01   -2.771699E+00
    2.898488E+00   -4.686948E-01
    1.985845E+00    2.633461E+00
   -1.238891E+00    3.504643E+00
   -3.821179E+00    1.232205E+00
   -3.444007E+00   -2.216161E+00
   -4.971851E-01   -3.896164E+00
    2.421507E+00   -2.572485E+00
    2.962083E+00    3.093321E-01
    1.070325E+00    2.127180E+00
   -1.191630E+00    1.508647E+00
   -1.696659E+00   -5.885452E-01
   -1.523741E-01   -1.986068E+00
    1.840869E+00   -1.363583E+00
    2.422912E+00    6.622847E-01
    1.139913E+00    2.303170E+00
   -8.404582E-01    2.293268E+00
   -1.953547E+00    8.868971E-01
   -1.607412E+00   -6.107019E-01
   -4.769641E-01   -1.123638E+00
    3.345672E-01   -6.329546E-01
    3.081411E-01    7.490325E-02
   -2.229017E-01    2.788831E-01
   -5.997644E-01   -9.687428E-02
   -4.844287E-01   -6.229125E-01
   -1.949548E-02   -8.850916E-01
    4.776979E-01   -7.918636E-01
    8.257274E-01   -4.665273E-01
    9.848855E-01   -1.354144E-02
    8.977992E-01    5.092093E-01
    4.823062E-01    9.448082E-01
   -1.752919E-01    1.021060E+00
   -7.172454E-01    5.983897E-01
   -7.482552E-01   -7.354108E-02
   -2.454917E-01   -4.589192E-01
    3.087591E-01   -2.101733E-01
    3.132006E-01    4.308398E-01
   -3.526913E-01    7.714643E-01
   -1.119754E+00    3.048645E-01
   -1.195944E+00   -7.411724E-01
   -3.246582E-01   -1.520113E+00
    8.954444E-01   -1.309955E+00
    1.490224E+00   -2.104028E-01
    9.865118E-01    8.903640E-01
   -1.326727E-01    1.094058E+00
   -8.481712E-01    3.110521E-01
   -5.332935E-01   -6.524749E-01
    4.688335E-01   -8.372272E-01
    1.163245E+00   -2.038131E-02
    8.254908E-01    1.074750E+00
   -3.269224E-01    1.442533E+00
   -1.331270E+00    7.141851E-01
   -1.352322E+00   -5.140012E-01
   -4.221878E-01   -1.230355E+00
    6.194705E-01   -9.127227E-01
    9.018758E-01    3.940132E-02
    2.886059E-01    7.127814E-01
   -5.524438E-01    5.209211E-01
   -7.977621E-01   -2.975624E-01
   -2.133485E-01   -9.461052E-01
    6.728698E-01   -8.153038E-01
    1.085204E+00   -1.163341E-02
    6.956928E-01    7.819476E-01
   -1.251504E-01    9.389566E-01
   -6.854273E-01    4.200167E-01
   -5.914275E-01   -2.527923E-01
   -4.760747E-02   -5.017846E-01
    3.898717E-01   -1.922408E-01
    3.339105E-01    3.070667E-01
   -1.197726E-01    5.038971E-01
   -5.321296E-01    2.236462E-01
   -5.388042E-01   -2.757981E-01
   -1.530037E-01   -5.735241E-01
    2.907795E-01   -4.593144E-01
    4.561501E-01   -8.017536E-02
    2.803428E-01    2.324150E-01
   -1.929921E-02    2.620267E-01
   -1.713926E-01    6.308709E-02
   -8.283665E-02   -1.333883E-01
    1.169766E-01   -1.436386E-01
    2.239799E-01    2.390240E-02
    1.427464E-01    2.084015E-01
   -5.226370E-02    2.548696E-01
   -2.051171E-01    1.392300E-01
   -2.161243E-01   -3.509250E-02
   -1.085426E-01   -1.411155E-01
    1.446338E-02   -1.296663E-01
    6.553628E-02   -4.885220E-02
    3.522468E-02    1.566291E-02
   -2.006179E-02    1.545813E-02
   -3.806445E-02   -3.190550E-02
   -1.526229E-03   -7.175345E-02
    5.695387E-02   -6.366203E-02
    8.967225E-02   -1.125258E-02
    7.349901E-02    4.760663E-02
    2.364190E-02    7.481099E-02
   -2.379919E-02    6.021008E-02
   -4.180003E-02    2.400623E-02
   -3.031251E-02   -3.945862E-03
   -1.055148E-02   -8.462074E-03
   -3.760498E-03    2.312499E-03
   -1.348351E-02    8.519690E-03
   -2.538324E-02   -1.640922E-03
   -2.280566E-02   -2.159661E-02
   -3.104645E-03   -3.367794E-02
    1.992376E-02   -2.626095E-02
    2.898274E-02   -4.665375E-03
    1.910118E-02    1.396572E-02
    1.583431E-03    1.655902E-02
   -7.258654E-03    5.653247E-03
   -1.599503E-03   -4.131424E-03
    8.957865E-03   -9.969210E-04
    9.562726E-03    1.222687E-02
   -4.537543E-03    2.078812E-02
   -2.241457E-02    1.268427E-02
   -2.727232E-02   -8.815519E-03
   -1.251842E-02   -2.704157E-02
    1.122007E-02   -2.681164E-02
    2.509791E-02   -8.521487E-03
    1.896792E-02    1.190172E-02
    5.073760E-04    1.739859E-02
   -1.203776E-02    5.276855E-03
   -6.864312E-03   -1.057432E-02
    1.038659E-02   -1.287902E-02
    2.188856E-02    2.636008E-03
    1.433276E-02    2.288666E-02
   -8.370494E-03    2.920259E-02
   -2.814778E-02    1.444717E-02
   -2.883419E-02   -1.024826E-02
   -1.057201E-02   -2.528411E-02
    1.052764E-02   -1.994125E-02
    1.698984E-02   -1.520598E-03
    5.458862E-03    1.182032E-02
   -1.088677E-02    7.757689E-03
   -1.485097E-02   -9.214769E-03
   -1.078214E-03   -2.224086E-02
    1.908051E-02   -1.766973E-02
    2.784544E-02    2.456164E-03
    1.697525E-02    2.210684E-02
   -4.877076E-03    2.542216E-02
   -1.981139E-02    1.059982E-02
   -1.635637E-02   -8.715608E-03
    6.617871E-04   -1.558235E-02
    1.464248E-02   -4.659659E-03
    1.203102E-02    1.320111E-02
   -5.572940E-03    2.064240E-02
   -2.263048E-02    9.305849E-03
   -2.326171E-02   -1.240315E-02
   -5.469180E-03   -2.623323E-02
    1.650352E-02   -1.996754E-02
    2.414174E-02    1.471707E-03
    1.089884E-02    1.968098E-02
   -1.150408E-02    1.856831E-02
   -2.276834E-02   -1.200992E-03
   -1.183745E-02   -2.205402E-02
    1.269496E-02   -2.453227E-02
    2.932831E-02   -4.783983E-03
    2.242819E-02    2.109178E-02
   -3.289577E-03    3.053722E-02
   -2.594368E-02    1.461797E-02
   -2.542729E-02   -1.319254E-02
   -1.717544E-03   -2.813605E-02
    2.417221E-02   -1.610935E-02
    2.831161E-02    1.304752E-02
    5.456406E-03    3.341802E-02
   -2.540677E-02    2.581367E-02
   -3.726063E-02   -4.636526E-03
   -1.907681E-02   -3.227664E-02
    1.387174E-02   -3.333940E-02
