 Vespa-Simulation Mixed Metabolite Output
 This file was generated by Vespa-Simulation. You can learn about and download Vespa here:
https://github.com/vespa-mrs/vespa/tree/main/vespa

 
 Output Path/Filename = /home/stud/casperc/bhome/Project1(DeepFit)/DeepFit-data-generation/DeepFitData_TE_20_lw10_2048p
 Output Loop Values = (1,1,1)  ( Loop 1 = 10, Loop 2 = 10, Loop3 Inactive )
 Output Comment
 ---------------------------------------------------------------------------
 
 
 Experiment Information
 ---------------------------------------------------------------------------
 --- Experiment 18b0168e-f5f0-4bd4-8d52-da93aba06c60 ---
 Name: SyntheticDataSetDeepFitTE20
 Public: False
 Created: 2024-10-08T09:55:07
 Comment (abbr.): 
 PI: Casper Cappelen
 b0: 127.740000
 Peak Search PPM low/high: -15.000000 / 15.000000
 Blend tol. PPM/phase: 0.001500 / 50.000000
 Pulse seq.: 43be13ae-de9a-40a1-9a2d-c872d8bjs100 (PRESS Ideal)
 0 User static parameters: 
 22 Metabolites: 2-hydroxyglutarate, GPC-pcholine2, NAAG-truncated, alanine, choline-trimethyl, creatine, ethanolamine, gaba, glucose-beta, glutamate, glutamine, glutathione-glutamate, glutathione-glycine-cysteine, glycine, lactate, myo-inositol, n-acetylaspartate, phosphocreatine, phosphorylcholine-trimethyl, phosphorylethanolamine, pyruvate, taurine
 22 Simulations: (not shown)
 
 Metabolite Formatting Information
 ---------------------------------------------------------------------------
 Name=2-hydroxyglutarate Abbr=2HG Scale=1.0 Shift=0.0 PPM Start=-3.1207465171441986 PPM End=12.528391440425866
 Name=GPC-pcholine2 Abbr=GPC Scale=1.0 Shift=0.0 PPM Start=-3.1207465171441986 PPM End=12.528391440425866
 Name=NAAG-truncated Abbr=NAAG Scale=1.0 Shift=0.0 PPM Start=-3.1207465171441986 PPM End=12.528391440425866
 Name=alanine Abbr=Ala Scale=1.0 Shift=0.0 PPM Start=-3.1207465171441986 PPM End=12.528391440425866
 Name=choline-trimethyl Abbr=Cho Scale=1.0 Shift=0.0 PPM Start=-3.1207465171441986 PPM End=12.528391440425866
 Name=creatine Abbr=Cr Scale=1.0 Shift=0.0 PPM Start=-3.1207465171441986 PPM End=12.528391440425866
 Name=ethanolamine Abbr=ETA Scale=1.0 Shift=0.0 PPM Start=-3.1207465171441986 PPM End=12.528391440425866
 Name=gaba Abbr=GABA Scale=1.0 Shift=0.0 PPM Start=-3.1207465171441986 PPM End=12.528391440425866
 Name=glucose-beta Abbr=Glc Scale=1.0 Shift=0.0 PPM Start=-3.1207465171441986 PPM End=12.528391440425866
 Name=glutamate Abbr=Glu Scale=1.0 Shift=0.0 PPM Start=-3.1207465171441986 PPM End=12.528391440425866
 Name=glutamine Abbr=Gln Scale=1.0 Shift=0.0 PPM Start=-3.1207465171441986 PPM End=12.528391440425866
 Name=glycine Abbr=Gly Scale=1.0 Shift=0.0 PPM Start=-3.1207465171441986 PPM End=12.528391440425866
 Name=lactate Abbr=Lac Scale=1.0 Shift=0.0 PPM Start=-3.1207465171441986 PPM End=12.528391440425866
 Name=myo-inositol Abbr=mI Scale=1.0 Shift=0.0 PPM Start=-3.1207465171441986 PPM End=12.528391440425866
 Name=n-acetylaspartate Abbr=NAA Scale=1.0 Shift=0.0 PPM Start=-3.1207465171441986 PPM End=12.528391440425866
 Name=phosphocreatine Abbr=PCr Scale=1.0 Shift=0.0 PPM Start=-3.1207465171441986 PPM End=12.528391440425866
 Name=phosphorylcholine-trimethyl Abbr=PCho Scale=1.0 Shift=0.0 PPM Start=-3.1207465171441986 PPM End=12.528391440425866
 Name=phosphorylethanolamine Abbr=PE Scale=1.0 Shift=0.0 PPM Start=-3.1207465171441986 PPM End=12.528391440425866
 Name=pyruvate Abbr=Pyr Scale=1.0 Shift=0.0 PPM Start=-3.1207465171441986 PPM End=12.528391440425866
 Name=taurine Abbr=Tau Scale=1.0 Shift=0.0 PPM Start=-3.1207465171441986 PPM End=12.528391440425866
 Name=glutathione-glutamate+glutathione-glycine-cysteine Abbr=GSH Scale=1.0 Shift=0.0 PPM Start=-3.1207565171441987 PPM End=12.528
   Mixture of [metab*scale] = glutathione-glutamate*1.000000 + glutathione-glycine-cysteine*1.000000
 
 ===========================================================================
 This LCModel format RAW file was created using the 
 Vespa-Simulation spectral simulation program using 
 the following settings and parameters 
 
 Sweep Width = 2000.0 Hz 
 Vector Size = 2048 points 
 Apodization = 10.0 Hz Gaussian broadening
 B0 Field    = 127.74 MHz 
 Ref Singlet = False
  
 This data has been FFTd to be in the FREQUENCY domain
 
 $NMID ID='Glu'
 FMTDAT='(2E16.6)'
 VOLUME=1.0
 TRAMP=1.0
 $END
    2.346310E+00    5.813185E+00
    2.346551E+00    5.845063E+00
    2.346803E+00    5.877320E+00
    2.347065E+00    5.909964E+00
    2.347338E+00    5.943004E+00
    2.347622E+00    5.976448E+00
    2.347918E+00    6.010307E+00
    2.348225E+00    6.044589E+00
    2.348546E+00    6.079304E+00
    2.348881E+00    6.114462E+00
    2.349231E+00    6.150073E+00
    2.349595E+00    6.186145E+00
    2.349974E+00    6.222689E+00
    2.350367E+00    6.259717E+00
    2.350773E+00    6.297243E+00
    2.351192E+00    6.335279E+00
    2.351627E+00    6.373839E+00
    2.352080E+00    6.412938E+00
    2.352554E+00    6.452587E+00
    2.353049E+00    6.492798E+00
    2.353565E+00    6.533585E+00
    2.354101E+00    6.574962E+00
    2.354656E+00    6.616944E+00
    2.355229E+00    6.659550E+00
    2.355820E+00    6.702802E+00
    2.356433E+00    6.746718E+00
    2.357073E+00    6.791317E+00
    2.357742E+00    6.836619E+00
    2.358446E+00    6.882640E+00
    2.359186E+00    6.929398E+00
    2.359960E+00    6.976910E+00
    2.360769E+00    7.025197E+00
    2.361610E+00    7.074283E+00
    2.362481E+00    7.124194E+00
    2.363384E+00    7.174960E+00
    2.364321E+00    7.226610E+00
    2.365297E+00    7.279174E+00
    2.366319E+00    7.332682E+00
    2.367391E+00    7.387162E+00
    2.368519E+00    7.442643E+00
    2.369706E+00    7.499153E+00
    2.370952E+00    7.556723E+00
    2.372256E+00    7.615388E+00
    2.373618E+00    7.675187E+00
    2.375038E+00    7.736161E+00
    2.376520E+00    7.798355E+00
    2.378068E+00    7.861815E+00
    2.379688E+00    7.926590E+00
    2.381387E+00    7.992727E+00
    2.383171E+00    8.060275E+00
    2.385045E+00    8.129288E+00
    2.387015E+00    8.199820E+00
    2.389086E+00    8.271930E+00
    2.391262E+00    8.345680E+00
    2.393551E+00    8.421135E+00
    2.395959E+00    8.498365E+00
    2.398493E+00    8.577444E+00
    2.401160E+00    8.658448E+00
    2.403969E+00    8.741459E+00
    2.406927E+00    8.826565E+00
    2.410045E+00    8.913857E+00
    2.413334E+00    9.003432E+00
    2.416804E+00    9.095389E+00
    2.420465E+00    9.189833E+00
    2.424327E+00    9.286873E+00
    2.428390E+00    9.386621E+00
    2.432651E+00    9.489200E+00
    2.437094E+00    9.594741E+00
    2.441692E+00    9.703393E+00
    2.446403E+00    9.815331E+00
    2.451173E+00    9.930764E+00
    2.455947E+00    1.004995E+01
    2.460679E+00    1.017320E+01
    2.465359E+00    1.030090E+01
    2.470029E+00    1.043345E+01
    2.474805E+00    1.057131E+01
    2.479872E+00    1.071491E+01
    2.485472E+00    1.086467E+01
    2.491864E+00    1.102095E+01
    2.499294E+00    1.118406E+01
    2.507966E+00    1.135432E+01
    2.518034E+00    1.153208E+01
    2.529628E+00    1.171775E+01
    2.542882E+00    1.191181E+01
    2.557961E+00    1.211481E+01
    2.575062E+00    1.232735E+01
    2.594382E+00    1.255003E+01
    2.616066E+00    1.278348E+01
    2.640155E+00    1.302844E+01
    2.666581E+00    1.328583E+01
    2.695204E+00    1.355690E+01
    2.725927E+00    1.384329E+01
    2.758840E+00    1.414707E+01
    2.794351E+00    1.447072E+01
    2.833265E+00    1.481699E+01
    2.876763E+00    1.518883E+01
    2.926288E+00    1.558937E+01
    2.983412E+00    1.602203E+01
    3.049747E+00    1.649084E+01
    3.127051E+00    1.700092E+01
    3.217615E+00    1.755903E+01
    3.325033E+00    1.817416E+01
    3.455418E+00    1.885790E+01
    3.619115E+00    1.962446E+01
    3.832877E+00    2.048994E+01
    4.122380E+00    2.147063E+01
    4.524612E+00    2.257950E+01
    5.089212E+00    2.382087E+01
    5.877329E+00    2.518307E+01
    6.956291E+00    2.663038E+01
    8.388988E+00    2.809686E+01
    1.021855E+01    2.948570E+01
    1.245168E+01    3.067757E+01
    1.504687E+01    3.154940E+01
    1.791428E+01    3.199988E+01
    2.093187E+01    3.197358E+01
    2.397536E+01    3.147228E+01
    2.695168E+01    3.054514E+01
    2.982050E+01    2.925773E+01
    3.259034E+01    2.765182E+01
    3.528671E+01    2.571547E+01
    3.790487E+01    2.338197E+01
    4.037063E+01    2.056317E+01
    4.253226E+01    1.720479E+01
    4.419255E+01    1.333705E+01
    4.516907E+01    9.093797E+00
    4.535447E+01    4.688210E+00
    4.474781E+01    3.556124E-01
    4.344268E+01   -3.708882E+00
    4.158075E+01   -7.388336E+00
    3.929675E+01   -1.064251E+01
    3.668265E+01   -1.347366E+01
    3.378585E+01   -1.588257E+01
    3.063632E+01   -1.783987E+01
    2.728301E+01   -1.928617E+01
    2.381789E+01   -2.015739E+01
    2.037557E+01   -2.041919E+01
    1.711033E+01   -2.009230E+01
    1.416300E+01   -1.925770E+01
    1.163250E+01   -1.804184E+01
    9.561791E+00   -1.659018E+01
    7.940182E+00   -1.504017E+01
    6.717383E+00   -1.350211E+01
    5.822023E+00   -1.205095E+01
    5.178367E+00   -1.072770E+01
    4.717785E+00   -9.546513E+00
    4.384419E+00   -8.503690E+00
    4.136340E+00   -7.585706E+00
    3.944023E+00   -6.775110E+00
    3.787763E+00   -6.054188E+00
    3.655039E+00   -5.406866E+00
    3.538302E+00   -4.819466E+00
    3.433308E+00   -4.280828E+00
    3.337939E+00   -3.782127E+00
    3.251374E+00   -3.316597E+00
    3.173509E+00   -2.879239E+00
    3.104507E+00   -2.466533E+00
    3.044469E+00   -2.076129E+00
    2.993182E+00   -1.706523E+00
    2.950007E+00   -1.356695E+00
    2.913886E+00   -1.025775E+00
    2.883486E+00   -7.127794E-01
    2.857418E+00   -4.164709E-01
    2.834460E+00   -1.353643E-01
    2.813720E+00    1.321566E-01
    2.794685E+00    3.876633E-01
    2.777160E+00    6.325217E-01
    2.761138E+00    8.677999E-01
    2.746645E+00    1.094267E+00
    2.733622E+00    1.312468E+00
    2.721868E+00    1.522841E+00
    2.711065E+00    1.725828E+00
    2.700837E+00    1.921943E+00
