 Vespa-Simulation Mixed Metabolite Output
 This file was generated by Vespa-Simulation. You can learn about and download Vespa here:
https://github.com/vespa-mrs/vespa/tree/main/vespa

 
 Output Path/Filename = /home/stud/casperc/bhome/Project1(DeepFit)/DeepFit-data-generation/DeepFitData_TE_20_lw10_2048p
 Output Loop Values = (1,1,1)  ( Loop 1 = 10, Loop 2 = 10, Loop3 Inactive )
 Output Comment
 ---------------------------------------------------------------------------
 
 
 Experiment Information
 ---------------------------------------------------------------------------
 --- Experiment 18b0168e-f5f0-4bd4-8d52-da93aba06c60 ---
 Name: SyntheticDataSetDeepFitTE20
 Public: False
 Created: 2024-10-08T09:55:07
 Comment (abbr.): 
 PI: Casper Cappelen
 b0: 127.740000
 Peak Search PPM low/high: -15.000000 / 15.000000
 Blend tol. PPM/phase: 0.001500 / 50.000000
 Pulse seq.: 43be13ae-de9a-40a1-9a2d-c872d8bjs100 (PRESS Ideal)
 0 User static parameters: 
 22 Metabolites: 2-hydroxyglutarate, GPC-pcholine2, NAAG-truncated, alanine, choline-trimethyl, creatine, ethanolamine, gaba, glucose-beta, glutamate, glutamine, glutathione-glutamate, glutathione-glycine-cysteine, glycine, lactate, myo-inositol, n-acetylaspartate, phosphocreatine, phosphorylcholine-trimethyl, phosphorylethanolamine, pyruvate, taurine
 22 Simulations: (not shown)
 
 Metabolite Formatting Information
 ---------------------------------------------------------------------------
 Name=2-hydroxyglutarate Abbr=2HG Scale=1.0 Shift=0.0 PPM Start=-3.1207465171441986 PPM End=12.528391440425866
 Name=GPC-pcholine2 Abbr=GPC Scale=1.0 Shift=0.0 PPM Start=-3.1207465171441986 PPM End=12.528391440425866
 Name=NAAG-truncated Abbr=NAAG Scale=1.0 Shift=0.0 PPM Start=-3.1207465171441986 PPM End=12.528391440425866
 Name=alanine Abbr=Ala Scale=1.0 Shift=0.0 PPM Start=-3.1207465171441986 PPM End=12.528391440425866
 Name=choline-trimethyl Abbr=Cho Scale=1.0 Shift=0.0 PPM Start=-3.1207465171441986 PPM End=12.528391440425866
 Name=creatine Abbr=Cr Scale=1.0 Shift=0.0 PPM Start=-3.1207465171441986 PPM End=12.528391440425866
 Name=ethanolamine Abbr=ETA Scale=1.0 Shift=0.0 PPM Start=-3.1207465171441986 PPM End=12.528391440425866
 Name=gaba Abbr=GABA Scale=1.0 Shift=0.0 PPM Start=-3.1207465171441986 PPM End=12.528391440425866
 Name=glucose-beta Abbr=Glc Scale=1.0 Shift=0.0 PPM Start=-3.1207465171441986 PPM End=12.528391440425866
 Name=glutamate Abbr=Glu Scale=1.0 Shift=0.0 PPM Start=-3.1207465171441986 PPM End=12.528391440425866
 Name=glutamine Abbr=Gln Scale=1.0 Shift=0.0 PPM Start=-3.1207465171441986 PPM End=12.528391440425866
 Name=glycine Abbr=Gly Scale=1.0 Shift=0.0 PPM Start=-3.1207465171441986 PPM End=12.528391440425866
 Name=lactate Abbr=Lac Scale=1.0 Shift=0.0 PPM Start=-3.1207465171441986 PPM End=12.528391440425866
 Name=myo-inositol Abbr=mI Scale=1.0 Shift=0.0 PPM Start=-3.1207465171441986 PPM End=12.528391440425866
 Name=n-acetylaspartate Abbr=NAA Scale=1.0 Shift=0.0 PPM Start=-3.1207465171441986 PPM End=12.528391440425866
 Name=phosphocreatine Abbr=PCr Scale=1.0 Shift=0.0 PPM Start=-3.1207465171441986 PPM End=12.528391440425866
 Name=phosphorylcholine-trimethyl Abbr=PCho Scale=1.0 Shift=0.0 PPM Start=-3.1207465171441986 PPM End=12.528391440425866
 Name=phosphorylethanolamine Abbr=PE Scale=1.0 Shift=0.0 PPM Start=-3.1207465171441986 PPM End=12.528391440425866
 Name=pyruvate Abbr=Pyr Scale=1.0 Shift=0.0 PPM Start=-3.1207465171441986 PPM End=12.528391440425866
 Name=taurine Abbr=Tau Scale=1.0 Shift=0.0 PPM Start=-3.1207465171441986 PPM End=12.528391440425866
 Name=glutathione-glutamate+glutathione-glycine-cysteine Abbr=GSH Scale=1.0 Shift=0.0 PPM Start=-3.1207565171441987 PPM End=12.528
   Mixture of [metab*scale] = glutathione-glutamate*1.000000 + glutathione-glycine-cysteine*1.000000
 
 ===========================================================================
 This LCModel format RAW file was created using the 
 Vespa-Simulation spectral simulation program using 
 the following settings and parameters 
 
 Sweep Width = 2000.0 Hz 
 Vector Size = 2048 points 
 Apodization = 10.0 Hz Gaussian broadening
 B0 Field    = 127.74 MHz 
 Ref Singlet = False
  
 $NMID ID='Gly'
 FMTDAT='(2E16.6)'
 VOLUME=1.0
 TRAMP=1.0
 $END
    2.000000E+00   -2.775558E-17
    1.789894E+00    8.919470E-01
    1.203861E+00    1.596207E+00
    3.653970E-01    1.964712E+00
   -5.489069E-01    1.920247E+00
   -1.346663E+00    1.472676E+00
   -1.860313E+00    7.167531E-01
   -1.982420E+00   -1.879946E-01
   -1.688219E+00   -1.051045E+00
   -1.040653E+00   -1.691122E+00
   -1.768498E-01   -1.974409E+00
    7.209816E-01   -1.842585E+00
    1.464121E+00   -1.324885E+00
    1.897126E+00   -5.316071E-01
    1.930446E+00    3.694542E-01
    1.559001E+00    1.188605E+00
    8.628276E-01    1.754333E+00
   -1.017317E-02    1.949285E+00
   -8.757741E-01    1.734728E+00
   -1.552442E+00    1.158207E+00
   -1.899461E+00    3.430254E-01
   -1.846325E+00   -5.382050E-01
   -1.407078E+00   -1.300218E+00
   -6.767467E-01   -1.784159E+00
    1.892611E-01   -1.890797E+00
    1.008316E+00   -1.600917E+00
    1.609194E+00   -9.786961E-01
    1.867968E+00   -1.574934E-01
    1.733634E+00    6.888047E-01
    1.238156E+00    1.382695E+00
    4.889123E-01    1.780428E+00
   -3.545790E-01    1.801802E+00
   -1.114739E+00    1.446388E+00
   -1.633367E+00    7.927872E-01
   -1.804727E+00   -1.883798E-02
   -1.597063E+00   -8.167609E-01
   -1.058440E+00   -1.434253E+00
   -3.056355E-01   -1.744427E+00
    5.011250E-01   -1.686357E+00
    1.192482E+00   -1.277052E+00
    1.625435E+00   -6.068695E-01
    1.713108E+00    1.805100E-01
    1.442101E+00    9.188215E-01
    8.742759E-01    1.454548E+00
    1.327334E-01    1.678773E+00
   -6.250055E-01    1.549445E+00
   -1.240395E+00    1.099121E+00
   -1.587240E+00    4.269780E-01
   -1.597519E+00   -3.230471E-01
   -1.274715E+00   -9.930490E-01
   -6.918688E-01   -1.444590E+00
    2.483131E-02   -1.587225E+00
    7.235081E-01   -1.396691E+00
    1.258701E+00   -9.187799E-01
    1.521827E+00   -2.584559E-01
    1.463118E+00    4.431097E-01
    1.100980E+00    1.038879E+00
    5.168478E-01    1.406682E+00
   -1.631220E-01    1.474401E+00
   -7.953013E-01    1.233977E+00
   -1.248909E+00    7.418516E-01
   -1.433196E+00    1.057933E-01
   -1.315486E+00   -5.386111E-01
   -9.268111E-01   -1.057000E+00
   -3.540581E-01   -1.344166E+00
    2.793779E-01   -1.345479E+00
    8.403240E-01   -1.067136E+00
    1.213650E+00   -5.734956E-01
    1.326038E+00    2.768574E-02
    1.160297E+00    6.087337E-01
    7.575741E-01    1.049310E+00
    2.074196E-01    1.261155E+00
   -3.720654E-01    1.205871E+00
   -8.597049E-01    9.016464E-01
   -1.156409E+00    4.180547E-01
   -1.205413E+00   -1.397503E-01
   -1.003016E+00   -6.538613E-01
   -5.979063E-01   -1.018647E+00
   -7.969854E-02   -1.162278E+00
    4.408751E-01   -1.060914E+00
    8.555918E-01   -7.423677E-01
    1.081310E+00   -2.788098E-01
    1.076453E+00    2.293986E-01
    8.486236E-01    6.754407E-01
    4.515301E-01    9.685630E-01
   -2.745280E-02    1.052361E+00
   -4.864983E-01    9.156289E-01
   -8.309319E-01    5.933556E-01
   -9.927984E-01    1.579802E-01
   -9.440794E-01   -2.967096E-01
   -7.013936E-01   -6.758087E-01
   -3.211591E-01   -9.030547E-01
    1.134755E-01   -9.361564E-01
    5.106464E-01   -7.744380E-01
    7.892235E-01   -4.577365E-01
    8.953741E-01   -5.671559E-02
    8.127699E-01    3.427283E-01
    5.648181E-01    6.578853E-01
    2.084757E-01    8.262997E-01
   -1.787989E-01    8.180999E-01
   -5.157205E-01    6.410386E-01
   -7.342700E-01    3.376406E-01
   -7.933486E-01   -2.482913E-02
   -6.863780E-01   -3.692855E-01
   -4.414242E-01   -6.250578E-01
   -1.141778E-01   -7.424106E-01
    2.246870E-01   -7.021168E-01
    5.046196E-01   -5.182966E-01
    6.699001E-01   -2.342997E-01
    6.906394E-01    8.736557E-02
    5.680139E-01    3.787921E-01
    3.328386E-01    5.808578E-01
    3.806288E-02    6.552253E-01
   -2.530515E-01    5.914852E-01
   -4.805137E-01    4.082125E-01
   -5.998159E-01    1.479999E-01
   -5.906194E-01   -1.323072E-01
   -4.599872E-01   -3.740241E-01
   -2.398185E-01   -5.287698E-01
    2.075689E-02   -5.681379E-01
    2.662523E-01   -4.887590E-01
    4.466338E-01   -3.119470E-01
    5.273750E-01   -7.828435E-02
    4.960163E-01    1.615979E-01
    3.638100E-01    3.579174E-01
    1.623494E-01    4.720536E-01
   -6.380017E-02    4.839978E-01
   -2.669089E-01    3.957390E-01
   -4.060936E-01    2.298825E-01
   -4.554767E-01    2.409323E-02
   -4.088924E-01   -1.774576E-01
   -2.802455E-01   -3.333833E-01
   -9.977257E-02   -4.136046E-01
    9.296275E-02   -4.050389E-01
    2.576748E-01   -3.135312E-01
    3.617189E-01   -1.617776E-01
    3.864864E-01    1.614558E-02
    3.306080E-01    1.823373E-01
    2.093979E-01    3.031573E-01
    5.093314E-02    3.558637E-01
   -1.103665E-01    3.328710E-01
   -2.411526E-01    2.425709E-01
   -3.159846E-01    1.068283E-01
   -3.222003E-01   -4.418850E-02
   -2.619148E-01   -1.786306E-01
   -1.508252E-01   -2.696849E-01
   -1.433202E-02   -3.007694E-01
    1.182048E-01   -2.685081E-01
    2.197221E-01   -1.827473E-01
    2.709228E-01   -6.385572E-02
    2.638613E-01    6.201538E-02
    2.030103E-01    1.686125E-01
    1.036665E-01    2.350465E-01
   -1.172931E-02    2.497506E-01
   -1.186126E-01    2.124285E-01
   -1.954689E-01    1.335097E-01
   -2.281078E-01    3.143094E-02
   -2.121980E-01   -7.159072E-02
   -1.536320E-01   -1.543404E-01
   -6.676966E-02   -2.009195E-01
    2.901958E-02   -2.037522E-01
    1.135659E-01   -1.646572E-01
    1.701325E-01   -9.398384E-02
    1.886653E-01   -8.000967E-03
    1.674920E-01    7.478330E-02
    1.131975E-01    1.375582E-01
    3.881206E-02    1.685741E-01
   -3.927069E-02    1.632866E-01
   -1.048115E-01    1.248586E-01
   -1.450892E-01    6.308636E-02
   -1.533092E-01   -8.004163E-03
   -1.296579E-01   -7.328895E-02
   -8.085712E-02   -1.197215E-01
   -1.840579E-02   -1.388942E-01
