 Vespa-Simulation Mixed Metabolite Output
 This file was generated by Vespa-Simulation. You can learn about and download Vespa here:
https://github.com/vespa-mrs/vespa/tree/main/vespa

 
 Output Path/Filename = /home/stud/casperc/bhome/Project1(DeepFit)/DeepFit-data-generation/DeepFitData_TE_20_lw10_2048p
 Output Loop Values = (1,1,1)  ( Loop 1 = 10, Loop 2 = 10, Loop3 Inactive )
 Output Comment
 ---------------------------------------------------------------------------
 
 
 Experiment Information
 ---------------------------------------------------------------------------
 --- Experiment 18b0168e-f5f0-4bd4-8d52-da93aba06c60 ---
 Name: SyntheticDataSetDeepFitTE20
 Public: False
 Created: 2024-10-08T09:55:07
 Comment (abbr.): 
 PI: Casper Cappelen
 b0: 127.740000
 Peak Search PPM low/high: -15.000000 / 15.000000
 Blend tol. PPM/phase: 0.001500 / 50.000000
 Pulse seq.: 43be13ae-de9a-40a1-9a2d-c872d8bjs100 (PRESS Ideal)
 0 User static parameters: 
 22 Metabolites: 2-hydroxyglutarate, GPC-pcholine2, NAAG-truncated, alanine, choline-trimethyl, creatine, ethanolamine, gaba, glucose-beta, glutamate, glutamine, glutathione-glutamate, glutathione-glycine-cysteine, glycine, lactate, myo-inositol, n-acetylaspartate, phosphocreatine, phosphorylcholine-trimethyl, phosphorylethanolamine, pyruvate, taurine
 22 Simulations: (not shown)
 
 Metabolite Formatting Information
 ---------------------------------------------------------------------------
 Name=2-hydroxyglutarate Abbr=2HG Scale=1.0 Shift=0.0 PPM Start=-3.1207465171441986 PPM End=12.528391440425866
 Name=GPC-pcholine2 Abbr=GPC Scale=1.0 Shift=0.0 PPM Start=-3.1207465171441986 PPM End=12.528391440425866
 Name=NAAG-truncated Abbr=NAAG Scale=1.0 Shift=0.0 PPM Start=-3.1207465171441986 PPM End=12.528391440425866
 Name=alanine Abbr=Ala Scale=1.0 Shift=0.0 PPM Start=-3.1207465171441986 PPM End=12.528391440425866
 Name=choline-trimethyl Abbr=Cho Scale=1.0 Shift=0.0 PPM Start=-3.1207465171441986 PPM End=12.528391440425866
 Name=creatine Abbr=Cr Scale=1.0 Shift=0.0 PPM Start=-3.1207465171441986 PPM End=12.528391440425866
 Name=ethanolamine Abbr=ETA Scale=1.0 Shift=0.0 PPM Start=-3.1207465171441986 PPM End=12.528391440425866
 Name=gaba Abbr=GABA Scale=1.0 Shift=0.0 PPM Start=-3.1207465171441986 PPM End=12.528391440425866
 Name=glucose-beta Abbr=Glc Scale=1.0 Shift=0.0 PPM Start=-3.1207465171441986 PPM End=12.528391440425866
 Name=glutamate Abbr=Glu Scale=1.0 Shift=0.0 PPM Start=-3.1207465171441986 PPM End=12.528391440425866
 Name=glutamine Abbr=Gln Scale=1.0 Shift=0.0 PPM Start=-3.1207465171441986 PPM End=12.528391440425866
 Name=glycine Abbr=Gly Scale=1.0 Shift=0.0 PPM Start=-3.1207465171441986 PPM End=12.528391440425866
 Name=lactate Abbr=Lac Scale=1.0 Shift=0.0 PPM Start=-3.1207465171441986 PPM End=12.528391440425866
 Name=myo-inositol Abbr=mI Scale=1.0 Shift=0.0 PPM Start=-3.1207465171441986 PPM End=12.528391440425866
 Name=n-acetylaspartate Abbr=NAA Scale=1.0 Shift=0.0 PPM Start=-3.1207465171441986 PPM End=12.528391440425866
 Name=phosphocreatine Abbr=PCr Scale=1.0 Shift=0.0 PPM Start=-3.1207465171441986 PPM End=12.528391440425866
 Name=phosphorylcholine-trimethyl Abbr=PCho Scale=1.0 Shift=0.0 PPM Start=-3.1207465171441986 PPM End=12.528391440425866
 Name=phosphorylethanolamine Abbr=PE Scale=1.0 Shift=0.0 PPM Start=-3.1207465171441986 PPM End=12.528391440425866
 Name=pyruvate Abbr=Pyr Scale=1.0 Shift=0.0 PPM Start=-3.1207465171441986 PPM End=12.528391440425866
 Name=taurine Abbr=Tau Scale=1.0 Shift=0.0 PPM Start=-3.1207465171441986 PPM End=12.528391440425866
 Name=glutathione-glutamate+glutathione-glycine-cysteine Abbr=GSH Scale=1.0 Shift=0.0 PPM Start=-3.1207565171441987 PPM End=12.528
   Mixture of [metab*scale] = glutathione-glutamate*1.000000 + glutathione-glycine-cysteine*1.000000
 
 ===========================================================================
 This LCModel format RAW file was created using the 
 Vespa-Simulation spectral simulation program using 
 the following settings and parameters 
 
 Sweep Width = 2000.0 Hz 
 Vector Size = 2048 points 
 Apodization = 10.0 Hz Gaussian broadening
 B0 Field    = 127.74 MHz 
 Ref Singlet = False
  
 This data has been FFTd to be in the FREQUENCY domain
 
 $NMID ID='Gly'
 FMTDAT='(2E16.6)'
 VOLUME=1.0
 TRAMP=1.0
 $END
    9.999889E-01    4.252473E+00
    9.999991E-01    4.281965E+00
    1.000009E+00    4.311844E+00
    1.000019E+00    4.342120E+00
    1.000027E+00    4.372800E+00
    1.000032E+00    4.403893E+00
    1.000035E+00    4.435410E+00
    1.000035E+00    4.467359E+00
    1.000032E+00    4.499750E+00
    1.000027E+00    4.532594E+00
    1.000020E+00    4.565902E+00
    1.000012E+00    4.599684E+00
    1.000004E+00    4.633950E+00
    9.999982E-01    4.668710E+00
    9.999946E-01    4.703975E+00
    9.999941E-01    4.739754E+00
    9.999965E-01    4.776057E+00
    1.000001E+00    4.812896E+00
    1.000007E+00    4.850281E+00
    1.000013E+00    4.888227E+00
    1.000019E+00    4.926744E+00
    1.000024E+00    4.965848E+00
    1.000028E+00    5.005552E+00
    1.000029E+00    5.045871E+00
    1.000029E+00    5.086821E+00
    1.000026E+00    5.128417E+00
    1.000021E+00    5.170676E+00
    1.000016E+00    5.213615E+00
    1.000010E+00    5.257250E+00
    1.000006E+00    5.301599E+00
    1.000004E+00    5.346679E+00
    1.000005E+00    5.392506E+00
    1.000008E+00    5.439099E+00
    1.000012E+00    5.486477E+00
    1.000018E+00    5.534658E+00
    1.000024E+00    5.583665E+00
    1.000029E+00    5.633518E+00
    1.000032E+00    5.684241E+00
    1.000032E+00    5.735858E+00
    1.000029E+00    5.788394E+00
    1.000023E+00    5.841875E+00
    1.000014E+00    5.896329E+00
    1.000003E+00    5.951783E+00
    9.999912E-01    6.008267E+00
    9.999807E-01    6.065809E+00
    9.999731E-01    6.124439E+00
    9.999696E-01    6.184187E+00
    9.999707E-01    6.245083E+00
    9.999760E-01    6.307160E+00
    9.999839E-01    6.370449E+00
    9.999923E-01    6.434988E+00
    9.999989E-01    6.500814E+00
    1.000002E+00    6.567970E+00
    1.000001E+00    6.636497E+00
    9.999952E-01    6.706442E+00
    9.999874E-01    6.777850E+00
    9.999795E-01    6.850770E+00
    9.999736E-01    6.925250E+00
    9.999717E-01    7.001338E+00
    9.999743E-01    7.079086E+00
    9.999810E-01    7.158546E+00
    9.999901E-01    7.239776E+00
    9.999994E-01    7.322834E+00
    1.000007E+00    7.407785E+00
    1.000011E+00    7.494696E+00
    1.000011E+00    7.583640E+00
    1.000007E+00    7.674690E+00
    1.000002E+00    7.767925E+00
    9.999971E-01    7.863423E+00
    9.999928E-01    7.961270E+00
    9.999904E-01    8.061551E+00
    9.999900E-01    8.164359E+00
    9.999915E-01    8.269791E+00
    9.999939E-01    8.377947E+00
    9.999965E-01    8.488936E+00
    9.999984E-01    8.602872E+00
    9.999990E-01    8.719875E+00
    9.999980E-01    8.840074E+00
    9.999956E-01    8.963602E+00
    9.999921E-01    9.090601E+00
    9.999880E-01    9.221221E+00
    9.999839E-01    9.355621E+00
    9.999806E-01    9.493969E+00
    9.999783E-01    9.636441E+00
    9.999776E-01    9.783226E+00
    9.999785E-01    9.934524E+00
    9.999810E-01    1.009055E+01
    9.999848E-01    1.025152E+01
    9.999897E-01    1.041769E+01
    9.999950E-01    1.058931E+01
    1.000000E+00    1.076665E+01
    1.000005E+00    1.095002E+01
    1.000008E+00    1.113972E+01
    1.000010E+00    1.133609E+01
    1.000011E+00    1.153950E+01
    1.000011E+00    1.175033E+01
    1.000010E+00    1.196900E+01
    1.000008E+00    1.219596E+01
    1.000008E+00    1.243171E+01
    1.000008E+00    1.267675E+01
    1.000008E+00    1.293166E+01
    1.000009E+00    1.319706E+01
    1.000010E+00    1.347360E+01
    1.000012E+00    1.376202E+01
    1.000014E+00    1.406311E+01
    1.000016E+00    1.437773E+01
    1.000017E+00    1.470682E+01
    1.000016E+00    1.505142E+01
    1.000014E+00    1.541267E+01
    1.000011E+00    1.579182E+01
    1.000005E+00    1.619026E+01
    9.999990E-01    1.660952E+01
    9.999927E-01    1.705131E+01
    9.999871E-01    1.751752E+01
    9.999825E-01    1.801028E+01
    9.999793E-01    1.853195E+01
    9.999776E-01    1.908522E+01
    9.999773E-01    1.967310E+01
    9.999788E-01    2.029904E+01
    9.999820E-01    2.096693E+01
    9.999867E-01    2.168128E+01
    9.999924E-01    2.244725E+01
    9.999984E-01    2.327083E+01
    1.000004E+00    2.415903E+01
    1.000009E+00    2.512007E+01
    1.000015E+00    2.616373E+01
    1.000030E+00    2.730172E+01
    1.000076E+00    2.854826E+01
    1.000234E+00    2.992083E+01
    1.000736E+00    3.144132E+01
    1.002244E+00    3.313766E+01
    1.006528E+00    3.504628E+01
    1.018039E+00    3.721560E+01
    1.047283E+00    3.971092E+01
    1.117547E+00    4.262053E+01
    1.277145E+00    4.606193E+01
    1.619710E+00    5.018544E+01
    2.314189E+00    5.516945E+01
    3.643119E+00    6.119887E+01
    6.041566E+00    6.841651E+01
    1.012020E+01    7.683964E+01
    1.664708E+01    8.624387E+01
    2.645965E+01    9.603419E+01
    4.028818E+01    1.051456E+02
    5.849917E+01    1.120333E+02
    8.080892E+01    1.148099E+02
    1.060586E+02    1.115569E+02
    1.321601E+02    1.007733E+02
    1.562968E+02    8.185711E+01
    1.753866E+02    5.546063E+01
    1.867181E+02    2.357273E+01
    1.885796E+02   -1.074927E+01
    1.806831E+02   -4.395400E+01
    1.642371E+02   -7.271835E+01
    1.416439E+02   -9.460097E+01
    1.159247E+02   -1.084376E+02
    9.006271E+01   -1.143880E+02
    6.645891E+01   -1.136680E+02
    4.662805E+01   -1.080962E+02
    3.116375E+01   -9.961744E+01
    1.991163E+01   -8.993080E+01
    1.224509E+01   -8.028762E+01
    7.341431E+00   -7.145158E+01
    4.391579E+00   -6.377193E+01
    2.720312E+00   -5.730737E+01
    1.827567E+00   -5.195063E+01
    1.377565E+00   -4.752517E+01
    1.163371E+00   -4.384635E+01
    1.067043E+00   -4.075207E+01
    1.026093E+00   -3.811259E+01
    1.009631E+00   -3.582930E+01
    1.003369E+00   -3.382901E+01
    1.001115E+00   -3.205758E+01
