 Vespa-Simulation Mixed Metabolite Output
 This file was generated by Vespa-Simulation. You can learn about and download Vespa here:
https://github.com/vespa-mrs/vespa/tree/main/vespa

 
 Output Path/Filename = /home/stud/casperc/bhome/Project1(DeepFit)/DeepFit-data-generation/DeepFitData_TE_20_lw10_2048p
 Output Loop Values = (1,1,1)  ( Loop 1 = 10, Loop 2 = 10, Loop3 Inactive )
 Output Comment
 ---------------------------------------------------------------------------
 
 
 Experiment Information
 ---------------------------------------------------------------------------
 --- Experiment 18b0168e-f5f0-4bd4-8d52-da93aba06c60 ---
 Name: SyntheticDataSetDeepFitTE20
 Public: False
 Created: 2024-10-08T09:55:07
 Comment (abbr.): 
 PI: Casper Cappelen
 b0: 127.740000
 Peak Search PPM low/high: -15.000000 / 15.000000
 Blend tol. PPM/phase: 0.001500 / 50.000000
 Pulse seq.: 43be13ae-de9a-40a1-9a2d-c872d8bjs100 (PRESS Ideal)
 0 User static parameters: 
 22 Metabolites: 2-hydroxyglutarate, GPC-pcholine2, NAAG-truncated, alanine, choline-trimethyl, creatine, ethanolamine, gaba, glucose-beta, glutamate, glutamine, glutathione-glutamate, glutathione-glycine-cysteine, glycine, lactate, myo-inositol, n-acetylaspartate, phosphocreatine, phosphorylcholine-trimethyl, phosphorylethanolamine, pyruvate, taurine
 22 Simulations: (not shown)
 
 Metabolite Formatting Information
 ---------------------------------------------------------------------------
 Name=2-hydroxyglutarate Abbr=2HG Scale=1.0 Shift=0.0 PPM Start=-3.1207465171441986 PPM End=12.528391440425866
 Name=GPC-pcholine2 Abbr=GPC Scale=1.0 Shift=0.0 PPM Start=-3.1207465171441986 PPM End=12.528391440425866
 Name=NAAG-truncated Abbr=NAAG Scale=1.0 Shift=0.0 PPM Start=-3.1207465171441986 PPM End=12.528391440425866
 Name=alanine Abbr=Ala Scale=1.0 Shift=0.0 PPM Start=-3.1207465171441986 PPM End=12.528391440425866
 Name=choline-trimethyl Abbr=Cho Scale=1.0 Shift=0.0 PPM Start=-3.1207465171441986 PPM End=12.528391440425866
 Name=creatine Abbr=Cr Scale=1.0 Shift=0.0 PPM Start=-3.1207465171441986 PPM End=12.528391440425866
 Name=ethanolamine Abbr=ETA Scale=1.0 Shift=0.0 PPM Start=-3.1207465171441986 PPM End=12.528391440425866
 Name=gaba Abbr=GABA Scale=1.0 Shift=0.0 PPM Start=-3.1207465171441986 PPM End=12.528391440425866
 Name=glucose-beta Abbr=Glc Scale=1.0 Shift=0.0 PPM Start=-3.1207465171441986 PPM End=12.528391440425866
 Name=glutamate Abbr=Glu Scale=1.0 Shift=0.0 PPM Start=-3.1207465171441986 PPM End=12.528391440425866
 Name=glutamine Abbr=Gln Scale=1.0 Shift=0.0 PPM Start=-3.1207465171441986 PPM End=12.528391440425866
 Name=glycine Abbr=Gly Scale=1.0 Shift=0.0 PPM Start=-3.1207465171441986 PPM End=12.528391440425866
 Name=lactate Abbr=Lac Scale=1.0 Shift=0.0 PPM Start=-3.1207465171441986 PPM End=12.528391440425866
 Name=myo-inositol Abbr=mI Scale=1.0 Shift=0.0 PPM Start=-3.1207465171441986 PPM End=12.528391440425866
 Name=n-acetylaspartate Abbr=NAA Scale=1.0 Shift=0.0 PPM Start=-3.1207465171441986 PPM End=12.528391440425866
 Name=phosphocreatine Abbr=PCr Scale=1.0 Shift=0.0 PPM Start=-3.1207465171441986 PPM End=12.528391440425866
 Name=phosphorylcholine-trimethyl Abbr=PCho Scale=1.0 Shift=0.0 PPM Start=-3.1207465171441986 PPM End=12.528391440425866
 Name=phosphorylethanolamine Abbr=PE Scale=1.0 Shift=0.0 PPM Start=-3.1207465171441986 PPM End=12.528391440425866
 Name=pyruvate Abbr=Pyr Scale=1.0 Shift=0.0 PPM Start=-3.1207465171441986 PPM End=12.528391440425866
 Name=taurine Abbr=Tau Scale=1.0 Shift=0.0 PPM Start=-3.1207465171441986 PPM End=12.528391440425866
 Name=glutathione-glutamate+glutathione-glycine-cysteine Abbr=GSH Scale=1.0 Shift=0.0 PPM Start=-3.1207565171441987 PPM End=12.528
   Mixture of [metab*scale] = glutathione-glutamate*1.000000 + glutathione-glycine-cysteine*1.000000
 
 ===========================================================================
 This LCModel format RAW file was created using the 
 Vespa-Simulation spectral simulation program using 
 the following settings and parameters 
 
 Sweep Width = 2000.0 Hz 
 Vector Size = 2048 points 
 Apodization = 10.0 Hz Gaussian broadening
 B0 Field    = 127.74 MHz 
 Ref Singlet = False
  
 $NMID ID='GPC'
 FMTDAT='(2E16.6)'
 VOLUME=1.0
 TRAMP=1.0
 $END
    9.000000E+00   -1.513524E-16
    7.441837E+00    5.060106E+00
    3.307888E+00    8.366621E+00
   -1.968100E+00    8.774804E+00
   -6.557363E+00    6.145817E+00
   -8.871172E+00    1.394045E+00
   -8.111882E+00   -3.831577E+00
   -4.548382E+00   -7.720763E+00
    5.792338E-01   -8.930215E+00
    5.491989E+00   -7.048462E+00
    8.490466E+00   -2.736003E+00
    8.543599E+00    2.506853E+00
    5.643972E+00    6.862923E+00
    8.065419E-01    8.829142E+00
   -4.287228E+00    7.736136E+00
   -7.874879E+00    3.976481E+00
   -8.723937E+00   -1.136490E+00
   -6.555932E+00   -5.828037E+00
   -2.137778E+00   -8.479341E+00
    2.990134E+00   -8.187028E+00
    7.051638E+00   -5.071310E+00
    8.651264E+00   -2.278328E-01
    7.254457E+00    4.658239E+00
    3.366292E+00    7.899529E+00
   -1.651138E+00    8.390181E+00
   -6.056646E+00    5.983700E+00
   -8.335203E+00    1.535656E+00
   -7.719793E+00   -3.400804E+00
   -4.449825E+00   -7.118132E+00
    3.209693E-01   -8.346001E+00
    4.932332E+00   -6.686068E+00
    7.795878E+00   -2.740741E+00
    7.943239E+00    2.105301E+00
    5.353879E+00    6.171551E+00
    9.514560E-01    8.065789E+00
   -3.725512E+00    7.160947E+00
   -7.062569E+00    3.802896E+00
   -7.927082E+00   -8.211030E-01
   -6.053136E+00   -5.102134E+00
   -2.122138E+00   -7.570818E+00
    2.484515E+00   -7.401781E+00
    6.171926E+00   -4.689946E+00
    7.684056E+00   -4.050032E-01
    6.532475E+00    3.955775E+00
    3.153307E+00    6.890832E+00
   -1.257073E+00    7.412546E+00
   -5.165526E+00    5.379306E+00
   -7.236264E+00    1.531241E+00
   -6.787440E+00   -2.779084E+00
   -4.015493E+00   -6.062132E+00
    8.733263E-02   -7.207232E+00
    4.087852E+00   -5.858109E+00
    6.613579E+00   -2.522561E+00
    6.823529E+00    1.617490E+00
    4.688378E+00    5.125423E+00
    9.855412E-01    6.808392E+00
   -2.983743E+00    6.123616E+00
   -5.851548E+00    3.352399E+00
   -6.655572E+00   -5.126763E-01
   -5.161564E+00   -4.123239E+00
   -1.929433E+00   -6.245573E+00
    1.895811E+00   -6.182804E+00
    4.989384E+00   -4.002909E+00
    6.306307E+00   -4.991127E-01
    5.433937E+00    3.098090E+00
    2.720322E+00    5.553308E+00
   -8.629263E-01    6.051040E+00
   -4.067687E+00    4.465564E+00
   -5.804650E+00    1.388780E+00
   -5.513548E+00   -2.089718E+00
   -3.342818E+00   -4.769037E+00
   -8.169868E-02   -5.750861E+00
    3.125998E+00   -4.741039E+00
    5.183655E+00   -2.135159E+00
    5.415968E+00    1.134162E+00
    3.790452E+00    3.930858E+00
    9.120299E-01    5.310188E+00
   -2.201548E+00    4.837836E+00
   -4.478724E+00    2.724916E+00
   -5.163319E+00   -2.613298E-01
   -4.065079E+00   -3.075527E+00
   -1.609062E+00   -4.760461E+00
    1.326811E+00   -4.771784E+00
    3.725231E+00   -3.153474E+00
    4.782240E+00   -5.055190E-01
    4.175717E+00    2.237136E+00
    2.162058E+00    4.134659E+00
   -5.286690E-01    4.564155E+00
   -2.957229E+00    3.423387E+00
   -4.302212E+00    1.149894E+00
   -4.137927E+00   -1.445038E+00
   -2.567769E+00   -3.465436E+00
   -1.719921E-01   -4.240052E+00
    2.205372E+00   -3.544255E+00
    3.753691E+00   -1.663079E+00
    3.971965E+00    7.231531E-01
    2.829540E+00    2.783769E+00
    7.614094E-01    3.826861E+00
   -1.495929E+00    3.531065E+00
   -3.166627E+00    2.042773E+00
   -3.701235E+00   -8.971156E-02
   -2.956987E+00   -2.117213E+00
   -1.232434E+00   -3.352459E+00
    8.502799E-01   -3.402738E+00
    2.568787E+00   -2.293201E+00
    3.350876E+00   -4.437178E-01
    2.964388E+00    1.489064E+00
    1.583834E+00    2.843894E+00
   -2.838836E-01    3.180971E+00
   -1.984688E+00    2.423733E+00
   -2.946186E+00    8.711985E-01
   -2.869302E+00   -9.179831E-01
   -1.820155E+00   -2.325964E+00
   -1.934690E-01   -2.888571E+00
    1.434999E+00   -2.447607E+00
    2.511317E+00   -1.192631E+00
    2.691527E+00    4.171298E-01
    1.950397E+00    1.820294E+00
    5.771538E-01    2.548211E+00
   -9.356559E-01    2.381088E+00
   -2.068178E+00    1.412656E+00
   -2.451535E+00    5.154466E-03
   -1.986820E+00   -1.344867E+00
   -8.676855E-01   -2.181302E+00
    4.978923E-01   -2.241979E+00
    1.635786E+00   -1.539591E+00
    2.169481E+00   -3.455718E-01
    1.944156E+00    9.133520E-01
    1.069628E+00    1.807068E+00
   -1.284946E-01    2.048485E+00
   -1.229487E+00    1.584840E+00
   -1.864129E+00    6.050483E-01
   -1.838285E+00   -5.351923E-01
   -1.190854E+00   -1.441878E+00
   -1.699330E-01   -1.818313E+00
    8.610721E-01   -1.561429E+00
    1.552212E+00   -7.878407E-01
    1.685229E+00    2.159008E-01
    1.241485E+00    1.098949E+00
    3.987717E-01    1.567786E+00
   -5.382832E-01    1.483467E+00
   -1.247731E+00    9.012878E-01
   -1.500389E+00    4.263868E-02
   -1.233092E+00   -7.881861E-01
   -5.620664E-01   -1.311249E+00
    2.656004E-01   -1.364877E+00
    9.619045E-01   -9.543374E-01
    1.297831E+00   -2.419315E-01
    1.177988E+00    5.159948E-01
    6.661783E-01    1.060712E+00
   -4.434477E-02    1.218924E+00
   -7.029565E-01    9.571469E-01
   -1.089768E+00    3.857154E-01
   -1.088173E+00   -2.859492E-01
   -7.191855E-01   -8.255104E-01
   -1.270126E-01   -1.057608E+00
    4.763090E-01   -9.202207E-01
    8.863218E-01   -4.796216E-01
    9.749567E-01    9.894396E-02
    7.297894E-01    6.124957E-01
    2.518534E-01    8.912355E-01
   -2.846326E-01    8.539148E-01
   -6.952847E-01    5.306452E-01
   -8.484836E-01    4.649826E-02
   -7.069550E-01   -4.260849E-01
   -3.350891E-01   -7.282637E-01
    1.285181E-01   -7.677473E-01
    5.222936E-01   -5.462186E-01
    7.173712E-01   -1.533770E-01
    6.594272E-01    2.683817E-01
    3.826992E-01    5.751426E-01
   -6.720952E-03    6.701860E-01
   -3.709218E-01    5.339075E-01
   -5.886111E-01    2.259465E-01
