 Vespa-Simulation Mixed Metabolite Output
 This file was generated by Vespa-Simulation. You can learn about and download Vespa here:
https://github.com/vespa-mrs/vespa/tree/main/vespa

 
 Output Path/Filename = /home/stud/casperc/bhome/Project1(DeepFit)/DeepFit-data-generation/DeepFitData_TE_20_lw10_2048p
 Output Loop Values = (1,1,1)  ( Loop 1 = 10, Loop 2 = 10, Loop3 Inactive )
 Output Comment
 ---------------------------------------------------------------------------
 
 
 Experiment Information
 ---------------------------------------------------------------------------
 --- Experiment 18b0168e-f5f0-4bd4-8d52-da93aba06c60 ---
 Name: SyntheticDataSetDeepFitTE20
 Public: False
 Created: 2024-10-08T09:55:07
 Comment (abbr.): 
 PI: Casper Cappelen
 b0: 127.740000
 Peak Search PPM low/high: -15.000000 / 15.000000
 Blend tol. PPM/phase: 0.001500 / 50.000000
 Pulse seq.: 43be13ae-de9a-40a1-9a2d-c872d8bjs100 (PRESS Ideal)
 0 User static parameters: 
 22 Metabolites: 2-hydroxyglutarate, GPC-pcholine2, NAAG-truncated, alanine, choline-trimethyl, creatine, ethanolamine, gaba, glucose-beta, glutamate, glutamine, glutathione-glutamate, glutathione-glycine-cysteine, glycine, lactate, myo-inositol, n-acetylaspartate, phosphocreatine, phosphorylcholine-trimethyl, phosphorylethanolamine, pyruvate, taurine
 22 Simulations: (not shown)
 
 Metabolite Formatting Information
 ---------------------------------------------------------------------------
 Name=2-hydroxyglutarate Abbr=2HG Scale=1.0 Shift=0.0 PPM Start=-3.1207465171441986 PPM End=12.528391440425866
 Name=GPC-pcholine2 Abbr=GPC Scale=1.0 Shift=0.0 PPM Start=-3.1207465171441986 PPM End=12.528391440425866
 Name=NAAG-truncated Abbr=NAAG Scale=1.0 Shift=0.0 PPM Start=-3.1207465171441986 PPM End=12.528391440425866
 Name=alanine Abbr=Ala Scale=1.0 Shift=0.0 PPM Start=-3.1207465171441986 PPM End=12.528391440425866
 Name=choline-trimethyl Abbr=Cho Scale=1.0 Shift=0.0 PPM Start=-3.1207465171441986 PPM End=12.528391440425866
 Name=creatine Abbr=Cr Scale=1.0 Shift=0.0 PPM Start=-3.1207465171441986 PPM End=12.528391440425866
 Name=ethanolamine Abbr=ETA Scale=1.0 Shift=0.0 PPM Start=-3.1207465171441986 PPM End=12.528391440425866
 Name=gaba Abbr=GABA Scale=1.0 Shift=0.0 PPM Start=-3.1207465171441986 PPM End=12.528391440425866
 Name=glucose-beta Abbr=Glc Scale=1.0 Shift=0.0 PPM Start=-3.1207465171441986 PPM End=12.528391440425866
 Name=glutamate Abbr=Glu Scale=1.0 Shift=0.0 PPM Start=-3.1207465171441986 PPM End=12.528391440425866
 Name=glutamine Abbr=Gln Scale=1.0 Shift=0.0 PPM Start=-3.1207465171441986 PPM End=12.528391440425866
 Name=glycine Abbr=Gly Scale=1.0 Shift=0.0 PPM Start=-3.1207465171441986 PPM End=12.528391440425866
 Name=lactate Abbr=Lac Scale=1.0 Shift=0.0 PPM Start=-3.1207465171441986 PPM End=12.528391440425866
 Name=myo-inositol Abbr=mI Scale=1.0 Shift=0.0 PPM Start=-3.1207465171441986 PPM End=12.528391440425866
 Name=n-acetylaspartate Abbr=NAA Scale=1.0 Shift=0.0 PPM Start=-3.1207465171441986 PPM End=12.528391440425866
 Name=phosphocreatine Abbr=PCr Scale=1.0 Shift=0.0 PPM Start=-3.1207465171441986 PPM End=12.528391440425866
 Name=phosphorylcholine-trimethyl Abbr=PCho Scale=1.0 Shift=0.0 PPM Start=-3.1207465171441986 PPM End=12.528391440425866
 Name=phosphorylethanolamine Abbr=PE Scale=1.0 Shift=0.0 PPM Start=-3.1207465171441986 PPM End=12.528391440425866
 Name=pyruvate Abbr=Pyr Scale=1.0 Shift=0.0 PPM Start=-3.1207465171441986 PPM End=12.528391440425866
 Name=taurine Abbr=Tau Scale=1.0 Shift=0.0 PPM Start=-3.1207465171441986 PPM End=12.528391440425866
 Name=glutathione-glutamate+glutathione-glycine-cysteine Abbr=GSH Scale=1.0 Shift=0.0 PPM Start=-3.1207565171441987 PPM End=12.528
   Mixture of [metab*scale] = glutathione-glutamate*1.000000 + glutathione-glycine-cysteine*1.000000
 
 ===========================================================================
 This LCModel format RAW file was created using the 
 Vespa-Simulation spectral simulation program using 
 the following settings and parameters 
 
 Sweep Width = 2000.0 Hz 
 Vector Size = 2048 points 
 Apodization = 10.0 Hz Gaussian broadening
 B0 Field    = 127.74 MHz 
 Ref Singlet = False
  
 This data has been FFTd to be in the FREQUENCY domain
 
 $NMID ID='GPC'
 FMTDAT='(2E16.6)'
 VOLUME=1.0
 TRAMP=1.0
 $END
    4.499773E+00    1.462858E+01
    4.499764E+00    1.470888E+01
    4.499742E+00    1.478998E+01
    4.499706E+00    1.487192E+01
    4.499657E+00    1.495470E+01
    4.499605E+00    1.503836E+01
    4.499562E+00    1.512292E+01
    4.499544E+00    1.520838E+01
    4.499565E+00    1.529474E+01
    4.499634E+00    1.538201E+01
    4.499750E+00    1.547018E+01
    4.499903E+00    1.555925E+01
    4.500075E+00    1.564921E+01
    4.500245E+00    1.574007E+01
    4.500391E+00    1.583187E+01
    4.500495E+00    1.592462E+01
    4.500547E+00    1.601837E+01
    4.500545E+00    1.611314E+01
    4.500493E+00    1.620898E+01
    4.500403E+00    1.630592E+01
    4.500285E+00    1.640398E+01
    4.500153E+00    1.650318E+01
    4.500020E+00    1.660355E+01
    4.499897E+00    1.670510E+01
    4.499793E+00    1.680785E+01
    4.499715E+00    1.691180E+01
    4.499667E+00    1.701697E+01
    4.499647E+00    1.712336E+01
    4.499651E+00    1.723100E+01
    4.499674E+00    1.733990E+01
    4.499709E+00    1.745007E+01
    4.499747E+00    1.756155E+01
    4.499785E+00    1.767436E+01
    4.499818E+00    1.778853E+01
    4.499843E+00    1.790409E+01
    4.499859E+00    1.802106E+01
    4.499866E+00    1.813948E+01
    4.499866E+00    1.825937E+01
    4.499860E+00    1.838078E+01
    4.499854E+00    1.850374E+01
    4.499852E+00    1.862826E+01
    4.499859E+00    1.875439E+01
    4.499878E+00    1.888214E+01
    4.499909E+00    1.901155E+01
    4.499950E+00    1.914263E+01
    4.499998E+00    1.927543E+01
    4.500046E+00    1.940998E+01
    4.500090E+00    1.954631E+01
    4.500126E+00    1.968446E+01
    4.500151E+00    1.982447E+01
    4.500163E+00    1.996638E+01
    4.500163E+00    2.011025E+01
    4.500150E+00    2.025611E+01
    4.500125E+00    2.040401E+01
    4.500091E+00    2.055400E+01
    4.500054E+00    2.070612E+01
    4.500018E+00    2.086043E+01
    4.499990E+00    2.101696E+01
    4.499975E+00    2.117576E+01
    4.499973E+00    2.133689E+01
    4.499984E+00    2.150037E+01
    4.500006E+00    2.166626E+01
    4.500034E+00    2.183462E+01
    4.500063E+00    2.200550E+01
    4.500091E+00    2.217896E+01
    4.500114E+00    2.235506E+01
    4.500129E+00    2.253386E+01
    4.500136E+00    2.271543E+01
    4.500133E+00    2.289985E+01
    4.500119E+00    2.308717E+01
    4.500098E+00    2.327749E+01
    4.500072E+00    2.347086E+01
    4.500047E+00    2.366738E+01
    4.500028E+00    2.386711E+01
    4.500019E+00    2.407013E+01
    4.500022E+00    2.427653E+01
    4.500036E+00    2.448637E+01
    4.500059E+00    2.469974E+01
    4.500087E+00    2.491674E+01
    4.500114E+00    2.513745E+01
    4.500135E+00    2.536198E+01
    4.500147E+00    2.559043E+01
    4.500147E+00    2.582291E+01
    4.500133E+00    2.605952E+01
    4.500104E+00    2.630040E+01
    4.500062E+00    2.654566E+01
    4.500010E+00    2.679543E+01
    4.499956E+00    2.704984E+01
    4.499908E+00    2.730902E+01
    4.499873E+00    2.757310E+01
    4.499858E+00    2.784222E+01
    4.499865E+00    2.811651E+01
    4.499890E+00    2.839612E+01
    4.499927E+00    2.868120E+01
    4.499966E+00    2.897190E+01
    4.499996E+00    2.926841E+01
    4.500009E+00    2.957091E+01
    4.500002E+00    2.987959E+01
    4.499976E+00    3.019466E+01
    4.499939E+00    3.051633E+01
    4.499902E+00    3.084481E+01
    4.499876E+00    3.118032E+01
    4.499868E+00    3.152308E+01
    4.499881E+00    3.187332E+01
    4.499913E+00    3.223128E+01
    4.499956E+00    3.259721E+01
    4.499999E+00    3.297139E+01
    4.500033E+00    3.335409E+01
    4.500050E+00    3.374564E+01
    4.500049E+00    3.414634E+01
    4.500034E+00    3.455654E+01
    4.500010E+00    3.497659E+01
    4.499985E+00    3.540684E+01
    4.499966E+00    3.584768E+01
    4.499955E+00    3.629950E+01
    4.499954E+00    3.676271E+01
    4.499961E+00    3.723774E+01
    4.499972E+00    3.772506E+01
    4.499984E+00    3.822516E+01
    4.499993E+00    3.873853E+01
    4.499995E+00    3.926574E+01
    4.499990E+00    3.980736E+01
    4.499979E+00    4.036399E+01
    4.499962E+00    4.093627E+01
    4.499943E+00    4.152489E+01
    4.499924E+00    4.213054E+01
    4.499909E+00    4.275400E+01
    4.499898E+00    4.339606E+01
    4.499895E+00    4.405758E+01
    4.499900E+00    4.473944E+01
    4.499912E+00    4.544262E+01
    4.499930E+00    4.616814E+01
    4.499953E+00    4.691707E+01
    4.499978E+00    4.769060E+01
    4.500002E+00    4.848995E+01
    4.500024E+00    4.931646E+01
    4.500039E+00    5.017155E+01
    4.500049E+00    5.105674E+01
    4.500051E+00    5.197367E+01
    4.500049E+00    5.292410E+01
    4.500044E+00    5.390992E+01
    4.500039E+00    5.493316E+01
    4.500036E+00    5.599601E+01
    4.500035E+00    5.710083E+01
    4.500038E+00    5.825019E+01
    4.500042E+00    5.944687E+01
    4.500049E+00    6.069387E+01
    4.500057E+00    6.199449E+01
    4.500065E+00    6.335228E+01
    4.500073E+00    6.477116E+01
    4.500077E+00    6.625540E+01
    4.500076E+00    6.780967E+01
    4.500066E+00    6.943912E+01
    4.500048E+00    7.114943E+01
    4.500023E+00    7.294686E+01
    4.499994E+00    7.483836E+01
    4.499965E+00    7.683161E+01
    4.499938E+00    7.893522E+01
    4.499918E+00    8.115876E+01
    4.499903E+00    8.351299E+01
    4.499895E+00    8.601003E+01
    4.499894E+00    8.866357E+01
    4.499902E+00    9.148915E+01
    4.499917E+00    9.450450E+01
    4.499939E+00    9.772994E+01
    4.499966E+00    1.011889E+02
    4.499994E+00    1.049086E+02
    4.500020E+00    1.089207E+02
    4.500044E+00    1.132626E+02
    4.500072E+00    1.179787E+02
    4.500140E+00    1.231221E+02
    4.500364E+00    1.287575E+02
    4.501115E+00    1.349643E+02
