 Vespa-Simulation Mixed Metabolite Output
 This file was generated by Vespa-Simulation. You can learn about and download Vespa here:
https://github.com/vespa-mrs/vespa/tree/main/vespa

 
 Output Path/Filename = /home/stud/casperc/bhome/Project1(DeepFit)/DeepFit-data-generation/DeepFitData_TE_20_lw10_2048p
 Output Loop Values = (1,1,1)  ( Loop 1 = 10, Loop 2 = 10, Loop3 Inactive )
 Output Comment
 ---------------------------------------------------------------------------
 
 
 Experiment Information
 ---------------------------------------------------------------------------
 --- Experiment 18b0168e-f5f0-4bd4-8d52-da93aba06c60 ---
 Name: SyntheticDataSetDeepFitTE20
 Public: False
 Created: 2024-10-08T09:55:07
 Comment (abbr.): 
 PI: Casper Cappelen
 b0: 127.740000
 Peak Search PPM low/high: -15.000000 / 15.000000
 Blend tol. PPM/phase: 0.001500 / 50.000000
 Pulse seq.: 43be13ae-de9a-40a1-9a2d-c872d8bjs100 (PRESS Ideal)
 0 User static parameters: 
 22 Metabolites: 2-hydroxyglutarate, GPC-pcholine2, NAAG-truncated, alanine, choline-trimethyl, creatine, ethanolamine, gaba, glucose-beta, glutamate, glutamine, glutathione-glutamate, glutathione-glycine-cysteine, glycine, lactate, myo-inositol, n-acetylaspartate, phosphocreatine, phosphorylcholine-trimethyl, phosphorylethanolamine, pyruvate, taurine
 22 Simulations: (not shown)
 
 Metabolite Formatting Information
 ---------------------------------------------------------------------------
 Name=2-hydroxyglutarate Abbr=2HG Scale=1.0 Shift=0.0 PPM Start=-3.1207465171441986 PPM End=12.528391440425866
 Name=GPC-pcholine2 Abbr=GPC Scale=1.0 Shift=0.0 PPM Start=-3.1207465171441986 PPM End=12.528391440425866
 Name=NAAG-truncated Abbr=NAAG Scale=1.0 Shift=0.0 PPM Start=-3.1207465171441986 PPM End=12.528391440425866
 Name=alanine Abbr=Ala Scale=1.0 Shift=0.0 PPM Start=-3.1207465171441986 PPM End=12.528391440425866
 Name=choline-trimethyl Abbr=Cho Scale=1.0 Shift=0.0 PPM Start=-3.1207465171441986 PPM End=12.528391440425866
 Name=creatine Abbr=Cr Scale=1.0 Shift=0.0 PPM Start=-3.1207465171441986 PPM End=12.528391440425866
 Name=ethanolamine Abbr=ETA Scale=1.0 Shift=0.0 PPM Start=-3.1207465171441986 PPM End=12.528391440425866
 Name=gaba Abbr=GABA Scale=1.0 Shift=0.0 PPM Start=-3.1207465171441986 PPM End=12.528391440425866
 Name=glucose-beta Abbr=Glc Scale=1.0 Shift=0.0 PPM Start=-3.1207465171441986 PPM End=12.528391440425866
 Name=glutamate Abbr=Glu Scale=1.0 Shift=0.0 PPM Start=-3.1207465171441986 PPM End=12.528391440425866
 Name=glutamine Abbr=Gln Scale=1.0 Shift=0.0 PPM Start=-3.1207465171441986 PPM End=12.528391440425866
 Name=glycine Abbr=Gly Scale=1.0 Shift=0.0 PPM Start=-3.1207465171441986 PPM End=12.528391440425866
 Name=lactate Abbr=Lac Scale=1.0 Shift=0.0 PPM Start=-3.1207465171441986 PPM End=12.528391440425866
 Name=myo-inositol Abbr=mI Scale=1.0 Shift=0.0 PPM Start=-3.1207465171441986 PPM End=12.528391440425866
 Name=n-acetylaspartate Abbr=NAA Scale=1.0 Shift=0.0 PPM Start=-3.1207465171441986 PPM End=12.528391440425866
 Name=phosphocreatine Abbr=PCr Scale=1.0 Shift=0.0 PPM Start=-3.1207465171441986 PPM End=12.528391440425866
 Name=phosphorylcholine-trimethyl Abbr=PCho Scale=1.0 Shift=0.0 PPM Start=-3.1207465171441986 PPM End=12.528391440425866
 Name=phosphorylethanolamine Abbr=PE Scale=1.0 Shift=0.0 PPM Start=-3.1207465171441986 PPM End=12.528391440425866
 Name=pyruvate Abbr=Pyr Scale=1.0 Shift=0.0 PPM Start=-3.1207465171441986 PPM End=12.528391440425866
 Name=taurine Abbr=Tau Scale=1.0 Shift=0.0 PPM Start=-3.1207465171441986 PPM End=12.528391440425866
 Name=glutathione-glutamate+glutathione-glycine-cysteine Abbr=GSH Scale=1.0 Shift=0.0 PPM Start=-3.1207565171441987 PPM End=12.528
   Mixture of [metab*scale] = glutathione-glutamate*1.000000 + glutathione-glycine-cysteine*1.000000
 
 ===========================================================================
 This LCModel format RAW file was created using the 
 Vespa-Simulation spectral simulation program using 
 the following settings and parameters 
 
 Sweep Width = 2000.0 Hz 
 Vector Size = 2048 points 
 Apodization = 10.0 Hz Gaussian broadening
 B0 Field    = 127.74 MHz 
 Ref Singlet = False
  
 $NMID ID='GSH'
 FMTDAT='(2E16.6)'
 VOLUME=1.0
 TRAMP=1.0
 $END
    1.034688E+01    1.617844E-02
    7.704015E+00    4.510547E+00
    1.717706E+00    6.506924E+00
   -3.343266E+00    5.273153E+00
   -4.321914E+00    2.248327E+00
   -1.545041E+00   -2.296672E-01
    1.801411E+00   -7.323272E-01
    2.583808E+00    3.871114E-01
    3.046000E-01    1.617181E+00
   -2.794225E+00    1.683656E+00
   -3.962121E+00    4.730747E-01
   -2.353513E+00   -1.158106E+00
    4.911605E-01   -2.280728E+00
    2.311562E+00   -2.577273E+00
    2.224260E+00   -2.292327E+00
    1.308357E+00   -1.719517E+00
    1.290755E+00   -8.700019E-01
    2.724556E+00    3.672330E-01
    4.418277E+00    1.860907E+00
    4.585559E+00    3.158660E+00
    2.549907E+00    3.814646E+00
   -6.082322E-01    3.755644E+00
   -2.999829E+00    3.264781E+00
   -3.511548E+00    2.602757E+00
   -2.562442E+00    1.718978E+00
   -1.452243E+00    4.254337E-01
   -1.062899E+00   -1.131002E+00
   -1.187094E+00   -2.274254E+00
   -1.024512E+00   -2.248210E+00
   -2.032262E-01   -9.894154E-01
    7.775005E-01    5.599837E-01
    1.120566E+00    1.074067E+00
    6.793009E-01   -3.136373E-03
    2.386445E-01   -1.795860E+00
    7.595754E-01   -2.546827E+00
    2.289471E+00   -1.052593E+00
    3.647912E+00    2.203715E+00
    3.314556E+00    5.251945E+00
    8.049005E-01    6.089849E+00
   -2.705584E+00    4.220295E+00
   -5.138576E+00    9.958121E-01
   -5.078720E+00   -1.495820E+00
   -2.850535E+00   -2.041132E+00
   -2.158974E-01   -1.070477E+00
    1.035040E+00   -3.447231E-02
    4.229497E-01   -4.782344E-02
   -1.013092E+00   -1.017175E+00
   -1.713768E+00   -1.930806E+00
   -8.994373E-01   -1.906318E+00
    8.921057E-01   -9.706364E-01
    2.373512E+00    9.674957E-02
    2.597178E+00    5.987352E-01
    1.631641E+00    5.713387E-01
    3.389349E-01    6.397959E-01
   -4.428468E-01    1.279721E+00
   -5.628472E-01    2.247431E+00
   -5.411304E-01    2.746081E+00
   -9.726655E-01    2.160823E+00
   -1.921878E+00    6.521170E-01
   -2.825460E+00   -9.509165E-01
   -2.953572E+00   -1.840747E+00
   -2.017597E+00   -1.853610E+00
   -4.257283E-01   -1.470802E+00
    9.991297E-01   -1.258231E+00
    1.596140E+00   -1.319876E+00
    1.293239E+00   -1.283148E+00
    5.869662E-01   -7.830212E-01
    1.298015E-01    7.713204E-02
    2.555773E-01    7.697930E-01
    7.826022E-01    8.555315E-01
    1.202102E+00    4.486796E-01
    1.076458E+00    1.509764E-01
    3.436017E-01    4.796375E-01
   -6.731006E-01    1.318725E+00
   -1.515723E+00    1.931761E+00
   -1.887988E+00    1.570321E+00
   -1.781248E+00    1.580538E-01
   -1.377568E+00   -1.562437E+00
   -8.578253E-01   -2.571138E+00
   -2.946769E-01   -2.353048E+00
    2.990587E-01   -1.265184E+00
    8.547796E-01   -1.965654E-01
    1.213778E+00    1.667097E-01
    1.232931E+00   -1.550004E-01
    9.334943E-01   -5.570772E-01
    5.332275E-01   -4.418700E-01
    2.979342E-01    2.594648E-01
    3.226124E-01    1.068171E+00
    4.385570E-01    1.411248E+00
    3.490817E-01    1.114496E+00
   -1.054415E-01    5.064762E-01
   -7.794207E-01    7.798531E-02
   -1.306617E+00    3.428670E-02
   -1.377206E+00    1.459374E-01
   -9.759237E-01    1.104992E-02
   -3.791662E-01   -5.311283E-01
    8.167132E-02   -1.216831E+00
    2.800796E-01   -1.565631E+00
    3.521646E-01   -1.287745E+00
    5.138142E-01   -5.312567E-01
    8.166603E-01    2.384989E-01
    1.074971E+00    6.118748E-01
    1.032775E+00    5.364862E-01
    6.158161E-01    3.035034E-01
    3.106355E-02    2.556145E-01
   -3.867272E-01    4.853855E-01
   -4.500491E-01    7.788104E-01
   -2.699675E-01    8.305933E-01
   -1.465525E-01    5.231451E-01
   -2.936805E-01    2.302190E-02
   -6.416795E-01   -3.749009E-01
   -8.919642E-01   -5.006557E-01
   -7.750356E-01   -4.310311E-01
   -2.855983E-01   -3.822411E-01
    3.073441E-01   -4.853018E-01
    6.778207E-01   -6.548405E-01
    6.950567E-01   -6.691511E-01
    4.967011E-01   -3.839511E-01
    3.341638E-01    1.164503E-01
    3.402938E-01    5.684133E-01
    4.264724E-01    7.358743E-01
    3.896643E-01    5.940967E-01
    1.200312E-01    3.328317E-01
   -2.838138E-01    1.822626E-01
   -5.923347E-01    2.176252E-01
   -6.395092E-01    3.108557E-01
   -4.572242E-01    2.637290E-01
   -2.336407E-01   -2.100035E-03
   -1.402390E-01   -3.667700E-01
   -1.863093E-01   -6.104378E-01
   -2.276090E-01   -5.968137E-01
   -1.138219E-01   -3.801309E-01
    1.636268E-01   -1.469891E-01
    4.555589E-01   -5.100083E-02
    5.809646E-01   -8.831506E-02
    4.788507E-01   -1.193039E-01
    2.519294E-01   -9.469614E-03
    6.897826E-02    2.399819E-01
    1.818655E-02    4.865016E-01
    4.254401E-02    5.658076E-01
    9.577773E-03    4.282764E-01
   -1.531586E-01    1.739798E-01
   -3.809205E-01   -3.783224E-02
   -5.208882E-01   -1.193873E-01
   -4.619673E-01   -1.106078E-01
   -2.303183E-01   -1.190484E-01
    3.087191E-02   -2.062077E-01
    1.767251E-01   -3.268544E-01
    1.704069E-01   -3.733780E-01
    9.675009E-02   -2.798200E-01
    7.548347E-02   -8.756893E-02
    1.542230E-01    8.713686E-02
    2.724014E-01    1.528088E-01
    3.207022E-01    1.180289E-01
    2.382539E-01    7.534792E-02
    6.263219E-02    1.104442E-01
   -1.055995E-01    2.202239E-01
   -1.869541E-01    3.135582E-01
   -1.809878E-01    2.925887E-01
   -1.519092E-01    1.406031E-01
   -1.609004E-01   -6.147656E-02
   -2.079555E-01   -2.021914E-01
   -2.335018E-01   -2.285458E-01
   -1.751734E-01   -1.785314E-01
   -2.826681E-02   -1.329970E-01
    1.424094E-01   -1.357958E-01
    2.485458E-01   -1.569108E-01
    2.433510E-01   -1.299990E-01
    1.530288E-01   -2.564227E-02
    5.204020E-02    1.110945E-01
    4.811572E-03    1.953416E-01
    2.089713E-02    1.777990E-01
    5.610405E-02    9.066919E-02
    5.389035E-02    2.048279E-02
