 Vespa-Simulation Mixed Metabolite Output
 This file was generated by Vespa-Simulation. You can learn about and download Vespa here:
https://github.com/vespa-mrs/vespa/tree/main/vespa

 
 Output Path/Filename = /home/stud/casperc/bhome/Project1(DeepFit)/DeepFit-data-generation/DeepFitData_TE_20_lw10_2048p
 Output Loop Values = (1,1,1)  ( Loop 1 = 10, Loop 2 = 10, Loop3 Inactive )
 Output Comment
 ---------------------------------------------------------------------------
 
 
 Experiment Information
 ---------------------------------------------------------------------------
 --- Experiment 18b0168e-f5f0-4bd4-8d52-da93aba06c60 ---
 Name: SyntheticDataSetDeepFitTE20
 Public: False
 Created: 2024-10-08T09:55:07
 Comment (abbr.): 
 PI: Casper Cappelen
 b0: 127.740000
 Peak Search PPM low/high: -15.000000 / 15.000000
 Blend tol. PPM/phase: 0.001500 / 50.000000
 Pulse seq.: 43be13ae-de9a-40a1-9a2d-c872d8bjs100 (PRESS Ideal)
 0 User static parameters: 
 22 Metabolites: 2-hydroxyglutarate, GPC-pcholine2, NAAG-truncated, alanine, choline-trimethyl, creatine, ethanolamine, gaba, glucose-beta, glutamate, glutamine, glutathione-glutamate, glutathione-glycine-cysteine, glycine, lactate, myo-inositol, n-acetylaspartate, phosphocreatine, phosphorylcholine-trimethyl, phosphorylethanolamine, pyruvate, taurine
 22 Simulations: (not shown)
 
 Metabolite Formatting Information
 ---------------------------------------------------------------------------
 Name=2-hydroxyglutarate Abbr=2HG Scale=1.0 Shift=0.0 PPM Start=-3.1207465171441986 PPM End=12.528391440425866
 Name=GPC-pcholine2 Abbr=GPC Scale=1.0 Shift=0.0 PPM Start=-3.1207465171441986 PPM End=12.528391440425866
 Name=NAAG-truncated Abbr=NAAG Scale=1.0 Shift=0.0 PPM Start=-3.1207465171441986 PPM End=12.528391440425866
 Name=alanine Abbr=Ala Scale=1.0 Shift=0.0 PPM Start=-3.1207465171441986 PPM End=12.528391440425866
 Name=choline-trimethyl Abbr=Cho Scale=1.0 Shift=0.0 PPM Start=-3.1207465171441986 PPM End=12.528391440425866
 Name=creatine Abbr=Cr Scale=1.0 Shift=0.0 PPM Start=-3.1207465171441986 PPM End=12.528391440425866
 Name=ethanolamine Abbr=ETA Scale=1.0 Shift=0.0 PPM Start=-3.1207465171441986 PPM End=12.528391440425866
 Name=gaba Abbr=GABA Scale=1.0 Shift=0.0 PPM Start=-3.1207465171441986 PPM End=12.528391440425866
 Name=glucose-beta Abbr=Glc Scale=1.0 Shift=0.0 PPM Start=-3.1207465171441986 PPM End=12.528391440425866
 Name=glutamate Abbr=Glu Scale=1.0 Shift=0.0 PPM Start=-3.1207465171441986 PPM End=12.528391440425866
 Name=glutamine Abbr=Gln Scale=1.0 Shift=0.0 PPM Start=-3.1207465171441986 PPM End=12.528391440425866
 Name=glycine Abbr=Gly Scale=1.0 Shift=0.0 PPM Start=-3.1207465171441986 PPM End=12.528391440425866
 Name=lactate Abbr=Lac Scale=1.0 Shift=0.0 PPM Start=-3.1207465171441986 PPM End=12.528391440425866
 Name=myo-inositol Abbr=mI Scale=1.0 Shift=0.0 PPM Start=-3.1207465171441986 PPM End=12.528391440425866
 Name=n-acetylaspartate Abbr=NAA Scale=1.0 Shift=0.0 PPM Start=-3.1207465171441986 PPM End=12.528391440425866
 Name=phosphocreatine Abbr=PCr Scale=1.0 Shift=0.0 PPM Start=-3.1207465171441986 PPM End=12.528391440425866
 Name=phosphorylcholine-trimethyl Abbr=PCho Scale=1.0 Shift=0.0 PPM Start=-3.1207465171441986 PPM End=12.528391440425866
 Name=phosphorylethanolamine Abbr=PE Scale=1.0 Shift=0.0 PPM Start=-3.1207465171441986 PPM End=12.528391440425866
 Name=pyruvate Abbr=Pyr Scale=1.0 Shift=0.0 PPM Start=-3.1207465171441986 PPM End=12.528391440425866
 Name=taurine Abbr=Tau Scale=1.0 Shift=0.0 PPM Start=-3.1207465171441986 PPM End=12.528391440425866
 Name=glutathione-glutamate+glutathione-glycine-cysteine Abbr=GSH Scale=1.0 Shift=0.0 PPM Start=-3.1207565171441987 PPM End=12.528
   Mixture of [metab*scale] = glutathione-glutamate*1.000000 + glutathione-glycine-cysteine*1.000000
 
 ===========================================================================
 This LCModel format RAW file was created using the 
 Vespa-Simulation spectral simulation program using 
 the following settings and parameters 
 
 Sweep Width = 2000.0 Hz 
 Vector Size = 2048 points 
 Apodization = 10.0 Hz Gaussian broadening
 B0 Field    = 127.74 MHz 
 Ref Singlet = False
  
 This data has been FFTd to be in the FREQUENCY domain
 
 $NMID ID='GSH'
 FMTDAT='(2E16.6)'
 VOLUME=1.0
 TRAMP=1.0
 $END
    8.193817E+00    3.066889E+01
    8.987035E+00    3.201061E+01
    1.005855E+01    3.342338E+01
    1.146541E+01    3.484065E+01
    1.324271E+01    3.616680E+01
    1.538739E+01    3.728747E+01
    1.784833E+01    3.809012E+01
    2.052963E+01    3.849036E+01
    2.331105E+01    3.845460E+01
    2.608134E+01    3.800696E+01
    2.877248E+01    3.721262E+01
    3.137726E+01    3.613962E+01
    3.393677E+01    3.481399E+01
    3.649733E+01    3.319129E+01
    3.905355E+01    3.116430E+01
    4.150617E+01    2.861087E+01
    4.366098E+01    2.546419E+01
    4.527698E+01    2.177211E+01
    4.614644E+01    1.771326E+01
    4.617032E+01    1.355711E+01
    4.539241E+01    9.583771E+00
    4.397521E+01    6.000435E+00
    4.213008E+01    2.893352E+00
    4.003677E+01    2.352820E-01
    3.779053E+01   -2.060356E+00
    3.539806E+01   -4.069595E+00
    3.281744E+01   -5.807480E+00
    3.001645E+01   -7.218195E+00
    2.701872E+01   -8.204288E+00
    2.391806E+01   -8.675391E+00
    2.085933E+01   -8.591474E+00
    1.799958E+01   -7.983054E+00
    1.546844E+01   -6.944442E+00
    1.334258E+01   -5.608016E+00
    1.163975E+01   -4.112736E+00
    1.032911E+01   -2.578456E+00
    9.349909E+00   -1.091884E+00
    8.630611E+00    2.957529E-01
    8.103300E+00    1.562994E+00
    7.711670E+00    2.708953E+00
    7.413434E+00    3.744296E+00
    7.179140E+00    4.684326E+00
    6.989359E+00    5.544685E+00
    6.831663E+00    6.339225E+00
    6.698114E+00    7.079365E+00
    6.583490E+00    7.774212E+00
    6.484158E+00    8.430986E+00
    6.397432E+00    9.055486E+00
    6.321222E+00    9.652465E+00
    6.253848E+00    1.022591E+01
    6.193935E+00    1.077922E+01
    6.140352E+00    1.131537E+01
    6.092168E+00    1.183697E+01
    6.048622E+00    1.234638E+01
    6.009107E+00    1.284570E+01
    5.973157E+00    1.333685E+01
    5.940434E+00    1.382157E+01
    5.910712E+00    1.430144E+01
    5.883853E+00    1.477786E+01
    5.859782E+00    1.525209E+01
    5.838445E+00    1.572522E+01
    5.819782E+00    1.619823E+01
    5.803695E+00    1.667202E+01
    5.790030E+00    1.714740E+01
    5.778566E+00    1.762520E+01
    5.769020E+00    1.810626E+01
    5.761064E+00    1.859150E+01
    5.754357E+00    1.908193E+01
    5.748588E+00    1.957869E+01
    5.743515E+00    2.008304E+01
    5.739008E+00    2.059629E+01
    5.735046E+00    2.111982E+01
    5.731707E+00    2.165502E+01
    5.729132E+00    2.220326E+01
    5.727480E+00    2.276593E+01
    5.726912E+00    2.334444E+01
    5.727587E+00    2.394030E+01
    5.729689E+00    2.455511E+01
    5.733444E+00    2.519060E+01
    5.739135E+00    2.584859E+01
    5.747081E+00    2.653097E+01
    5.757591E+00    2.723974E+01
    5.770921E+00    2.797705E+01
    5.787245E+00    2.874524E+01
    5.806656E+00    2.954698E+01
    5.829201E+00    3.038537E+01
    5.854941E+00    3.126397E+01
    5.884010E+00    3.218692E+01
    5.916675E+00    3.315895E+01
    5.953361E+00    3.418547E+01
    5.994684E+00    3.527264E+01
    6.041463E+00    3.642753E+01
    6.094747E+00    3.765824E+01
    6.155875E+00    3.897422E+01
    6.226571E+00    4.038656E+01
    6.309126E+00    4.190845E+01
    6.406698E+00    4.355572E+01
    6.523831E+00    4.534751E+01
    6.667283E+00    4.730713E+01
    6.847334E+00    4.946279E+01
    7.079663E+00    5.184832E+01
    7.387825E+00    5.450328E+01
    7.806099E+00    5.747232E+01
    8.382204E+00    6.080357E+01
    9.179223E+00    6.454643E+01
    1.027644E+01    6.875000E+01
    1.177010E+01    7.346389E+01
    1.377724E+01    7.874263E+01
    1.644829E+01    8.465240E+01
    1.999400E+01    9.127270E+01
    2.472796E+01    9.867918E+01
    3.111402E+01    1.068895E+02
    3.979151E+01    1.157596E+02
    5.153714E+01    1.248371E+02
    6.712339E+01    1.332121E+02
    8.706003E+01    1.394370E+02
    1.112584E+02    1.416018E+02
    1.387205E+02    1.376229E+02
    1.673948E+02    1.257308E+02
    1.943232E+02    1.050422E+02
    2.161195E+02    7.603019E+01
    2.296890E+02    4.069054E+01
    2.329808E+02    2.291470E+00
    2.255202E+02   -3.526242E+01
    2.085298E+02   -6.826611E+01
    1.845958E+02   -9.398296E+01
    1.570031E+02   -1.111078E+02
    1.289746E+02   -1.198103E+02
    1.030548E+02   -1.214048E+02
    8.079365E+01   -1.178137E+02
    6.275162E+01   -1.110258E+02
    4.873696E+01   -1.027080E+02
    3.813458E+01   -9.402810E+01
    3.020210E+01   -8.566489E+01
    2.426373E+01   -7.792663E+01
    1.979301E+01   -7.089789E+01
    1.641478E+01   -6.455921E+01
    1.386847E+01   -5.885966E+01
    1.196609E+01   -5.374765E+01
    1.056196E+01   -4.917657E+01
    9.536867E+00   -4.510098E+01
    8.792425E+00   -4.147304E+01
    8.249764E+00   -3.824207E+01
    7.848578E+00   -3.535675E+01
    7.545067E+00   -3.276814E+01
    7.308856E+00   -3.043206E+01
    7.119607E+00   -2.831036E+01
    6.963970E+00   -2.637098E+01
    6.833201E+00   -2.458750E+01
    6.721477E+00   -2.293824E+01
    6.624808E+00   -2.140538E+01
    6.540347E+00   -1.997417E+01
    6.465989E+00   -1.863229E+01
    6.400120E+00   -1.736935E+01
    6.341467E+00   -1.617652E+01
    6.288997E+00   -1.504619E+01
    6.241851E+00   -1.397181E+01
    6.199290E+00   -1.294765E+01
    6.160650E+00   -1.196869E+01
    6.125320E+00   -1.103045E+01
    6.092716E+00   -1.012893E+01
    6.062283E+00   -9.260448E+00
    6.033518E+00   -8.421600E+00
    6.006014E+00   -7.609156E+00
    5.979514E+00   -6.820055E+00
    5.953964E+00   -6.051416E+00
    5.929534E+00   -5.300590E+00
    5.906594E+00   -4.565233E+00
    5.885635E+00   -3.843359E+00
    5.867153E+00   -3.133352E+00
    5.851541E+00   -2.433908E+00
    5.839010E+00   -1.743931E+00
    5.829580E+00   -1.062411E+00
