 Vespa-Simulation Mixed Metabolite Output
 This file was generated by Vespa-Simulation. You can learn about and download Vespa here:
https://github.com/vespa-mrs/vespa/tree/main/vespa

 
 Output Path/Filename = /home/stud/casperc/bhome/Project1(DeepFit)/DeepFit-data-generation/DeepFitData_TE_20_lw10_2048p
 Output Loop Values = (1,1,1)  ( Loop 1 = 10, Loop 2 = 10, Loop3 Inactive )
 Output Comment
 ---------------------------------------------------------------------------
 
 
 Experiment Information
 ---------------------------------------------------------------------------
 --- Experiment 18b0168e-f5f0-4bd4-8d52-da93aba06c60 ---
 Name: SyntheticDataSetDeepFitTE20
 Public: False
 Created: 2024-10-08T09:55:07
 Comment (abbr.): 
 PI: Casper Cappelen
 b0: 127.740000
 Peak Search PPM low/high: -15.000000 / 15.000000
 Blend tol. PPM/phase: 0.001500 / 50.000000
 Pulse seq.: 43be13ae-de9a-40a1-9a2d-c872d8bjs100 (PRESS Ideal)
 0 User static parameters: 
 22 Metabolites: 2-hydroxyglutarate, GPC-pcholine2, NAAG-truncated, alanine, choline-trimethyl, creatine, ethanolamine, gaba, glucose-beta, glutamate, glutamine, glutathione-glutamate, glutathione-glycine-cysteine, glycine, lactate, myo-inositol, n-acetylaspartate, phosphocreatine, phosphorylcholine-trimethyl, phosphorylethanolamine, pyruvate, taurine
 22 Simulations: (not shown)
 
 Metabolite Formatting Information
 ---------------------------------------------------------------------------
 Name=2-hydroxyglutarate Abbr=2HG Scale=1.0 Shift=0.0 PPM Start=-3.1207465171441986 PPM End=12.528391440425866
 Name=GPC-pcholine2 Abbr=GPC Scale=1.0 Shift=0.0 PPM Start=-3.1207465171441986 PPM End=12.528391440425866
 Name=NAAG-truncated Abbr=NAAG Scale=1.0 Shift=0.0 PPM Start=-3.1207465171441986 PPM End=12.528391440425866
 Name=alanine Abbr=Ala Scale=1.0 Shift=0.0 PPM Start=-3.1207465171441986 PPM End=12.528391440425866
 Name=choline-trimethyl Abbr=Cho Scale=1.0 Shift=0.0 PPM Start=-3.1207465171441986 PPM End=12.528391440425866
 Name=creatine Abbr=Cr Scale=1.0 Shift=0.0 PPM Start=-3.1207465171441986 PPM End=12.528391440425866
 Name=ethanolamine Abbr=ETA Scale=1.0 Shift=0.0 PPM Start=-3.1207465171441986 PPM End=12.528391440425866
 Name=gaba Abbr=GABA Scale=1.0 Shift=0.0 PPM Start=-3.1207465171441986 PPM End=12.528391440425866
 Name=glucose-beta Abbr=Glc Scale=1.0 Shift=0.0 PPM Start=-3.1207465171441986 PPM End=12.528391440425866
 Name=glutamate Abbr=Glu Scale=1.0 Shift=0.0 PPM Start=-3.1207465171441986 PPM End=12.528391440425866
 Name=glutamine Abbr=Gln Scale=1.0 Shift=0.0 PPM Start=-3.1207465171441986 PPM End=12.528391440425866
 Name=glycine Abbr=Gly Scale=1.0 Shift=0.0 PPM Start=-3.1207465171441986 PPM End=12.528391440425866
 Name=lactate Abbr=Lac Scale=1.0 Shift=0.0 PPM Start=-3.1207465171441986 PPM End=12.528391440425866
 Name=myo-inositol Abbr=mI Scale=1.0 Shift=0.0 PPM Start=-3.1207465171441986 PPM End=12.528391440425866
 Name=n-acetylaspartate Abbr=NAA Scale=1.0 Shift=0.0 PPM Start=-3.1207465171441986 PPM End=12.528391440425866
 Name=phosphocreatine Abbr=PCr Scale=1.0 Shift=0.0 PPM Start=-3.1207465171441986 PPM End=12.528391440425866
 Name=phosphorylcholine-trimethyl Abbr=PCho Scale=1.0 Shift=0.0 PPM Start=-3.1207465171441986 PPM End=12.528391440425866
 Name=phosphorylethanolamine Abbr=PE Scale=1.0 Shift=0.0 PPM Start=-3.1207465171441986 PPM End=12.528391440425866
 Name=pyruvate Abbr=Pyr Scale=1.0 Shift=0.0 PPM Start=-3.1207465171441986 PPM End=12.528391440425866
 Name=taurine Abbr=Tau Scale=1.0 Shift=0.0 PPM Start=-3.1207465171441986 PPM End=12.528391440425866
 Name=glutathione-glutamate+glutathione-glycine-cysteine Abbr=GSH Scale=1.0 Shift=0.0 PPM Start=-3.1207565171441987 PPM End=12.528
   Mixture of [metab*scale] = glutathione-glutamate*1.000000 + glutathione-glycine-cysteine*1.000000
 
 ===========================================================================
 This LCModel format RAW file was created using the 
 Vespa-Simulation spectral simulation program using 
 the following settings and parameters 
 
 Sweep Width = 2000.0 Hz 
 Vector Size = 2048 points 
 Apodization = 10.0 Hz Gaussian broadening
 B0 Field    = 127.74 MHz 
 Ref Singlet = False
  
 $NMID ID='Lac'
 FMTDAT='(2E16.6)'
 VOLUME=1.0
 TRAMP=1.0
 $END
    3.370464E+00   -3.871640E-03
    1.244079E+00    2.777294E+00
   -1.811467E+00    1.441423E+00
   -1.100130E+00   -1.642785E+00
    2.055055E+00   -1.428242E+00
    2.476498E+00    1.842875E+00
   -6.773132E-01    3.083079E+00
   -2.638001E+00    4.064803E-01
   -5.744148E-01   -1.959422E+00
    2.010960E+00   -3.917697E-01
    8.844463E-01    2.465658E+00
   -2.263724E+00    1.958493E+00
   -2.562933E+00   -1.241862E+00
    3.574570E-01   -2.273218E+00
    1.872234E+00    2.406557E-01
   -3.083291E-01    2.115691E+00
   -2.609092E+00    2.741047E-01
   -1.309573E+00   -2.457497E+00
    1.628182E+00   -1.886950E+00
    1.741276E+00    9.663457E-01
   -9.163792E-01    1.583833E+00
   -1.974805E+00   -9.159783E-01
    3.171478E-01   -2.494145E+00
    2.417689E+00   -6.224129E-01
    1.147170E+00    1.805077E+00
   -1.367590E+00    1.119711E+00
   -1.154074E+00   -1.391503E+00
    1.366260E+00   -1.638431E+00
    2.163948E+00    8.141815E-01
   -1.439851E-02    2.171005E+00
   -1.774364E+00    4.357318E-01
   -4.919115E-01   -1.543042E+00
    1.638225E+00   -6.571610E-01
    1.178416E+00    1.622312E+00
   -1.163375E+00    1.686603E+00
   -1.770630E+00   -5.296894E-01
    1.693135E-01   -1.567772E+00
    1.508552E+00    6.649343E-02
    1.684399E-01    1.663455E+00
   -1.678806E+00    6.748263E-01
   -1.142335E+00   -1.339224E+00
    8.789841E-01   -1.285534E+00
    1.238778E+00    6.145658E-01
   -4.987233E-01    1.307651E+00
   -1.504068E+00   -2.479763E-01
   -2.024185E-01   -1.559577E+00
    1.345462E+00   -6.096225E-01
    7.879538E-01    1.048403E+00
   -8.767152E-01    8.515142E-01
   -1.001234E+00   -7.738033E-01
    5.481509E-01   -1.217494E+00
    1.310581E+00    1.806490E-01
    1.532118E-01    1.210789E+00
   -1.052887E+00    3.414486E-01
   -4.689601E-01   -9.623559E-01
    8.883869E-01   -6.553313E-01
    8.699064E-01    7.129988E-01
   -4.399768E-01    9.896814E-01
   -9.808966E-01   -1.843351E-01
    8.081930E-03   -9.295160E-01
    9.026484E-01   -1.427255E-01
    3.296153E-01    8.634093E-01
   -7.478780E-01    5.243039E-01
   -6.555850E-01   -5.668246E-01
    3.862219E-01   -7.083496E-01
    7.280001E-01    2.373514E-01
   -9.391408E-02    7.444598E-01
   -7.370937E-01    6.848823E-02
   -2.306747E-01   -6.779560E-01
    5.754354E-01   -3.580612E-01
    4.426671E-01    4.598166E-01
   -3.460159E-01    5.001813E-01
   -5.399738E-01   -2.285941E-01
    1.037718E-01   -5.557756E-01
    5.405559E-01   -2.003267E-02
    1.310402E-01    4.965903E-01
   -4.313601E-01    2.222929E-01
   -2.908304E-01   -3.527366E-01
    2.684786E-01   -3.369619E-01
    3.646411E-01    1.835593E-01
   -9.751407E-02    3.766069E-01
   -3.691417E-01   -1.028668E-02
   -6.987578E-02   -3.378824E-01
    2.886833E-01   -1.311100E-01
    1.714395E-01    2.353437E-01
   -1.845130E-01    2.001553E-01
   -2.226684E-01   -1.304083E-01
    6.871957E-02   -2.315869E-01
    2.186414E-01    8.768346E-03
    3.571781E-02    1.896421E-01
   -1.589714E-01    6.362220E-02
   -8.529339E-02   -1.316797E-01
    1.003824E-01   -1.051849E-01
    1.150955E-01    6.098111E-02
   -2.250811E-02    1.076618E-01
   -8.872668E-02    3.584949E-03
   -1.761221E-02   -7.004959E-02
    5.445379E-02   -2.813224E-02
    3.758517E-02    3.575126E-02
   -1.185577E-02    3.922547E-02
   -2.857257E-02    9.735511E-03
   -2.134529E-02   -1.089556E-02
   -5.720463E-03   -2.405429E-02
    2.347203E-02   -1.992178E-02
    3.535492E-02    2.041289E-02
   -1.061480E-02    5.207097E-02
   -6.461723E-02    7.593761E-03
   -2.998861E-02   -6.856099E-02
    6.489638E-02   -5.150496E-02
    7.120159E-02    5.663914E-02
   -4.387616E-02    9.036969E-02
   -1.078670E-01   -2.443309E-02
   -1.777420E-03   -1.197687E-01
    1.232431E-01   -3.140501E-02
    6.075109E-02    1.188394E-01
   -1.083955E-01    8.868265E-02
   -1.155378E-01   -9.190737E-02
    6.774818E-02   -1.399105E-01
    1.579696E-01    3.591137E-02
    1.804924E-04    1.665949E-01
   -1.663393E-01    3.631357E-02
   -7.137732E-02   -1.597224E-01
    1.466510E-01   -1.067876E-01
    1.413957E-01    1.238391E-01
   -9.024141E-02    1.694753E-01
   -1.861555E-01   -5.089705E-02
    1.208936E-02   -1.932303E-01
    1.956231E-01   -2.620229E-02
    6.852947E-02    1.923825E-01
   -1.763343E-01    1.138263E-01
   -1.523981E-01   -1.450625E-01
    1.069862E-01   -1.770529E-01
    1.925367E-01    7.123198E-02
   -3.498589E-02    2.073179E-01
   -2.182335E-01    1.101275E-02
   -6.490699E-02   -2.125087E-01
    1.868352E-01   -1.114486E-01
    1.414787E-01    1.546541E-01
   -1.277979E-01    1.644775E-01
   -1.927771E-01   -9.879476E-02
    5.295406E-02   -2.193881E-01
    2.250730E-01   -5.777506E-03
    5.568596E-02    2.068647E-01
   -1.843576E-01    8.685591E-02
   -1.150253E-01   -1.710572E-01
    1.532557E-01   -1.557820E-01
    1.968234E-01    1.110800E-01
   -5.202011E-02    2.126234E-01
   -2.021784E-01   -4.221493E-03
   -2.340152E-02   -1.915919E-01
    1.944992E-01   -5.360581E-02
    1.040355E-01    1.899136E-01
   -1.539444E-01    1.559739E-01
   -1.787592E-01   -9.888777E-02
    5.838384E-02   -1.750058E-01
    1.768629E-01    3.845877E-02
   -9.349324E-03    1.962662E-01
   -2.047918E-01    4.688122E-02
   -1.047916E-01   -1.762968E-01
    1.286882E-01   -1.304399E-01
    1.313808E-01    9.945673E-02
   -9.007963E-02    1.446061E-01
   -1.786334E-01   -6.464850E-02
    6.753926E-03   -1.982690E-01
    1.772357E-01   -5.178797E-02
    7.602555E-02    1.392557E-01
   -1.235256E-01    7.929040E-02
   -1.016051E-01   -1.258643E-01
    1.057718E-01   -1.467515E-01
    1.741889E-01    5.001288E-02
    4.295363E-03    1.595851E-01
   -1.320026E-01    2.351756E-02
   -2.683222E-02   -1.301402E-01
    1.436725E-01   -5.528944E-02
