 Vespa-Simulation Mixed Metabolite Output
 This file was generated by Vespa-Simulation. You can learn about and download Vespa here:
https://github.com/vespa-mrs/vespa/tree/main/vespa

 
 Output Path/Filename = /home/stud/casperc/bhome/Project1(DeepFit)/DeepFit-data-generation/DeepFitData_TE_20_lw10_2048p
 Output Loop Values = (1,1,1)  ( Loop 1 = 10, Loop 2 = 10, Loop3 Inactive )
 Output Comment
 ---------------------------------------------------------------------------
 
 
 Experiment Information
 ---------------------------------------------------------------------------
 --- Experiment 18b0168e-f5f0-4bd4-8d52-da93aba06c60 ---
 Name: SyntheticDataSetDeepFitTE20
 Public: False
 Created: 2024-10-08T09:55:07
 Comment (abbr.): 
 PI: Casper Cappelen
 b0: 127.740000
 Peak Search PPM low/high: -15.000000 / 15.000000
 Blend tol. PPM/phase: 0.001500 / 50.000000
 Pulse seq.: 43be13ae-de9a-40a1-9a2d-c872d8bjs100 (PRESS Ideal)
 0 User static parameters: 
 22 Metabolites: 2-hydroxyglutarate, GPC-pcholine2, NAAG-truncated, alanine, choline-trimethyl, creatine, ethanolamine, gaba, glucose-beta, glutamate, glutamine, glutathione-glutamate, glutathione-glycine-cysteine, glycine, lactate, myo-inositol, n-acetylaspartate, phosphocreatine, phosphorylcholine-trimethyl, phosphorylethanolamine, pyruvate, taurine
 22 Simulations: (not shown)
 
 Metabolite Formatting Information
 ---------------------------------------------------------------------------
 Name=2-hydroxyglutarate Abbr=2HG Scale=1.0 Shift=0.0 PPM Start=-3.1207465171441986 PPM End=12.528391440425866
 Name=GPC-pcholine2 Abbr=GPC Scale=1.0 Shift=0.0 PPM Start=-3.1207465171441986 PPM End=12.528391440425866
 Name=NAAG-truncated Abbr=NAAG Scale=1.0 Shift=0.0 PPM Start=-3.1207465171441986 PPM End=12.528391440425866
 Name=alanine Abbr=Ala Scale=1.0 Shift=0.0 PPM Start=-3.1207465171441986 PPM End=12.528391440425866
 Name=choline-trimethyl Abbr=Cho Scale=1.0 Shift=0.0 PPM Start=-3.1207465171441986 PPM End=12.528391440425866
 Name=creatine Abbr=Cr Scale=1.0 Shift=0.0 PPM Start=-3.1207465171441986 PPM End=12.528391440425866
 Name=ethanolamine Abbr=ETA Scale=1.0 Shift=0.0 PPM Start=-3.1207465171441986 PPM End=12.528391440425866
 Name=gaba Abbr=GABA Scale=1.0 Shift=0.0 PPM Start=-3.1207465171441986 PPM End=12.528391440425866
 Name=glucose-beta Abbr=Glc Scale=1.0 Shift=0.0 PPM Start=-3.1207465171441986 PPM End=12.528391440425866
 Name=glutamate Abbr=Glu Scale=1.0 Shift=0.0 PPM Start=-3.1207465171441986 PPM End=12.528391440425866
 Name=glutamine Abbr=Gln Scale=1.0 Shift=0.0 PPM Start=-3.1207465171441986 PPM End=12.528391440425866
 Name=glycine Abbr=Gly Scale=1.0 Shift=0.0 PPM Start=-3.1207465171441986 PPM End=12.528391440425866
 Name=lactate Abbr=Lac Scale=1.0 Shift=0.0 PPM Start=-3.1207465171441986 PPM End=12.528391440425866
 Name=myo-inositol Abbr=mI Scale=1.0 Shift=0.0 PPM Start=-3.1207465171441986 PPM End=12.528391440425866
 Name=n-acetylaspartate Abbr=NAA Scale=1.0 Shift=0.0 PPM Start=-3.1207465171441986 PPM End=12.528391440425866
 Name=phosphocreatine Abbr=PCr Scale=1.0 Shift=0.0 PPM Start=-3.1207465171441986 PPM End=12.528391440425866
 Name=phosphorylcholine-trimethyl Abbr=PCho Scale=1.0 Shift=0.0 PPM Start=-3.1207465171441986 PPM End=12.528391440425866
 Name=phosphorylethanolamine Abbr=PE Scale=1.0 Shift=0.0 PPM Start=-3.1207465171441986 PPM End=12.528391440425866
 Name=pyruvate Abbr=Pyr Scale=1.0 Shift=0.0 PPM Start=-3.1207465171441986 PPM End=12.528391440425866
 Name=taurine Abbr=Tau Scale=1.0 Shift=0.0 PPM Start=-3.1207465171441986 PPM End=12.528391440425866
 Name=glutathione-glutamate+glutathione-glycine-cysteine Abbr=GSH Scale=1.0 Shift=0.0 PPM Start=-3.1207565171441987 PPM End=12.528
   Mixture of [metab*scale] = glutathione-glutamate*1.000000 + glutathione-glycine-cysteine*1.000000
 
 ===========================================================================
 This LCModel format RAW file was created using the 
 Vespa-Simulation spectral simulation program using 
 the following settings and parameters 
 
 Sweep Width = 2000.0 Hz 
 Vector Size = 2048 points 
 Apodization = 10.0 Hz Gaussian broadening
 B0 Field    = 127.74 MHz 
 Ref Singlet = False
  
 This data has been FFTd to be in the FREQUENCY domain
 
 $NMID ID='Lac'
 FMTDAT='(2E16.6)'
 VOLUME=1.0
 TRAMP=1.0
 $END
    1.837338E+00    4.540508E+00
    1.841919E+00    4.583630E+00
    1.846698E+00    4.627772E+00
    1.851686E+00    4.672976E+00
    1.856895E+00    4.719285E+00
    1.862337E+00    4.766744E+00
    1.868028E+00    4.815403E+00
    1.873982E+00    4.865313E+00
    1.880217E+00    4.916529E+00
    1.886750E+00    4.969108E+00
    1.893602E+00    5.023109E+00
    1.900794E+00    5.078598E+00
    1.908348E+00    5.135642E+00
    1.916289E+00    5.194312E+00
    1.924644E+00    5.254685E+00
    1.933440E+00    5.316843E+00
    1.942708E+00    5.380873E+00
    1.952481E+00    5.446869E+00
    1.962796E+00    5.514930E+00
    1.973692E+00    5.585165E+00
    1.985213E+00    5.657688E+00
    1.997408E+00    5.732624E+00
    2.010328E+00    5.810105E+00
    2.024033E+00    5.890276E+00
    2.038589E+00    5.973290E+00
    2.054067E+00    6.059315E+00
    2.070547E+00    6.148529E+00
    2.088118E+00    6.241128E+00
    2.106879E+00    6.337323E+00
    2.126941E+00    6.437342E+00
    2.148426E+00    6.541434E+00
    2.171472E+00    6.649872E+00
    2.196234E+00    6.762953E+00
    2.222887E+00    6.881005E+00
    2.251631E+00    7.004388E+00
    2.282691E+00    7.133499E+00
    2.316328E+00    7.268776E+00
    2.352840E+00    7.410706E+00
    2.392572E+00    7.559830E+00
    2.435926E+00    7.716751E+00
    2.483370E+00    7.882146E+00
    2.535456E+00    8.056774E+00
    2.592838E+00    8.241493E+00
    2.656299E+00    8.437276E+00
    2.726783E+00    8.645232E+00
    2.805443E+00    8.866631E+00
    2.893709E+00    9.102939E+00
    2.993388E+00    9.355846E+00
    3.106803E+00    9.627303E+00
    3.237019E+00    9.919532E+00
    3.388149E+00    1.023498E+01
    3.565790E+00    1.057614E+01
    3.777562E+00    1.094515E+01
    4.033663E+00    1.134292E+01
    4.347209E+00    1.176784E+01
    4.733956E+00    1.221367E+01
    5.210806E+00    1.266723E+01
    5.792550E+00    1.310625E+01
    6.486640E+00    1.349883E+01
    7.286730E+00    1.380613E+01
    8.167037E+00    1.398958E+01
    9.080842E+00    1.402258E+01
    9.966738E+00    1.390420E+01
    1.076452E+01    1.366939E+01
    1.143857E+01    1.338860E+01
    1.200129E+01    1.315128E+01
    1.252490E+01    1.303333E+01
    1.313036E+01    1.305711E+01
    1.394926E+01    1.316083E+01
    1.506658E+01    1.319586E+01
    1.646577E+01    1.296342E+01
    1.800335E+01    1.228547E+01
    1.943378E+01    1.108585E+01
    2.048576E+01    9.445844E+00
    2.096598E+01    7.602352E+00
    2.084758E+01    5.878290E+00
    2.030046E+01    4.565762E+00
    1.964149E+01    3.808261E+00
    1.921824E+01    3.534485E+00
    1.927174E+01    3.477428E+00
    1.983717E+01    3.275502E+00
    2.072677E+01    2.614918E+00
    2.160313E+01    1.352968E+00
    2.211116E+01   -4.296276E-01
    2.201147E+01   -2.466715E+00
    2.126034E+01   -4.414287E+00
    2.000805E+01   -5.978451E+00
    1.852441E+01   -7.010448E+00
    1.709001E+01   -7.535200E+00
    1.590067E+01   -7.711930E+00
    1.501952E+01   -7.753341E+00
    1.438620E+01   -7.841849E+00
    1.386765E+01   -8.074915E+00
    1.332247E+01   -8.453054E+00
    1.265179E+01   -8.904366E+00
    1.182233E+01   -9.327132E+00
    1.086123E+01   -9.630416E+00
    9.833004E+00   -9.759369E+00
    8.812049E+00   -9.701696E+00
    7.861042E+00   -9.479546E+00
    7.019901E+00   -9.134578E+00
    6.304651E+00   -8.713257E+00
    5.712585E+00   -8.256530E+00
    5.229675E+00   -7.794917E+00
    4.837286E+00   -7.347929E+00
    4.516816E+00   -6.925979E+00
    4.252150E+00   -6.533128E+00
    4.030460E+00   -6.169611E+00
    3.842036E+00   -5.833709E+00
    3.679716E+00   -5.522935E+00
    3.538248E+00   -5.234675E+00
    3.413746E+00   -4.966485E+00
    3.303284E+00   -4.716198E+00
    3.204612E+00   -4.481928E+00
    3.115958E+00   -4.262046E+00
    3.035905E+00   -4.055145E+00
    2.963297E+00   -3.860003E+00
    2.897179E+00   -3.675553E+00
    2.836754E+00   -3.500858E+00
    2.781350E+00   -3.335091E+00
    2.730394E+00   -3.177517E+00
    2.683399E+00   -3.027482E+00
    2.639945E+00   -2.884399E+00
    2.599670E+00   -2.747743E+00
    2.562258E+00   -2.617042E+00
    2.527437E+00   -2.491869E+00
    2.494962E+00   -2.371838E+00
    2.464623E+00   -2.256601E+00
    2.436229E+00   -2.145838E+00
    2.409612E+00   -2.039258E+00
    2.384625E+00   -1.936595E+00
    2.361133E+00   -1.837607E+00
    2.339017E+00   -1.742068E+00
    2.318169E+00   -1.649775E+00
    2.298490E+00   -1.560539E+00
    2.279891E+00   -1.474183E+00
    2.262290E+00   -1.390545E+00
    2.245613E+00   -1.309473E+00
    2.229794E+00   -1.230823E+00
    2.214773E+00   -1.154463E+00
    2.200498E+00   -1.080269E+00
    2.186920E+00   -1.008128E+00
    2.173996E+00   -9.379322E-01
    2.161686E+00   -8.695852E-01
    2.149954E+00   -8.029949E-01
    2.138764E+00   -7.380759E-01
    2.128087E+00   -6.747484E-01
    2.117892E+00   -6.129388E-01
    2.108153E+00   -5.525791E-01
    2.098842E+00   -4.936068E-01
    2.089931E+00   -4.359626E-01
    2.081390E+00   -3.795886E-01
    2.073188E+00   -3.244259E-01
    2.065300E+00   -2.704129E-01
    2.057704E+00   -2.174873E-01
    2.050388E+00   -1.655882E-01
    2.043348E+00   -1.146604E-01
    2.036584E+00   -6.465820E-02
    2.030099E+00   -1.554710E-02
    2.023891E+00    3.269769E-02
    2.017948E+00    8.009501E-02
    2.012253E+00    1.266632E-01
    2.006778E+00    1.724254E-01
    2.001495E+00    2.174126E-01
    1.996377E+00    2.616641E-01
    1.991406E+00    3.052256E-01
    1.986574E+00    3.481438E-01
    1.981882E+00    3.904618E-01
    1.977340E+00    4.322142E-01
    1.972959E+00    4.734248E-01
    1.968749E+00    5.141070E-01
    1.964712E+00    5.542668E-01
    1.960840E+00    5.939083E-01
