 Vespa-Simulation Mixed Metabolite Output
 This file was generated by Vespa-Simulation. You can learn about and download Vespa here:
https://github.com/vespa-mrs/vespa/tree/main/vespa

 
 Output Path/Filename = /home/stud/casperc/bhome/Project1(DeepFit)/DeepFit-data-generation/DeepFitData_TE_20_lw10_2048p
 Output Loop Values = (1,1,1)  ( Loop 1 = 10, Loop 2 = 10, Loop3 Inactive )
 Output Comment
 ---------------------------------------------------------------------------
 
 
 Experiment Information
 ---------------------------------------------------------------------------
 --- Experiment 18b0168e-f5f0-4bd4-8d52-da93aba06c60 ---
 Name: SyntheticDataSetDeepFitTE20
 Public: False
 Created: 2024-10-08T09:55:07
 Comment (abbr.): 
 PI: Casper Cappelen
 b0: 127.740000
 Peak Search PPM low/high: -15.000000 / 15.000000
 Blend tol. PPM/phase: 0.001500 / 50.000000
 Pulse seq.: 43be13ae-de9a-40a1-9a2d-c872d8bjs100 (PRESS Ideal)
 0 User static parameters: 
 22 Metabolites: 2-hydroxyglutarate, GPC-pcholine2, NAAG-truncated, alanine, choline-trimethyl, creatine, ethanolamine, gaba, glucose-beta, glutamate, glutamine, glutathione-glutamate, glutathione-glycine-cysteine, glycine, lactate, myo-inositol, n-acetylaspartate, phosphocreatine, phosphorylcholine-trimethyl, phosphorylethanolamine, pyruvate, taurine
 22 Simulations: (not shown)
 
 Metabolite Formatting Information
 ---------------------------------------------------------------------------
 Name=2-hydroxyglutarate Abbr=2HG Scale=1.0 Shift=0.0 PPM Start=-3.1207465171441986 PPM End=12.528391440425866
 Name=GPC-pcholine2 Abbr=GPC Scale=1.0 Shift=0.0 PPM Start=-3.1207465171441986 PPM End=12.528391440425866
 Name=NAAG-truncated Abbr=NAAG Scale=1.0 Shift=0.0 PPM Start=-3.1207465171441986 PPM End=12.528391440425866
 Name=alanine Abbr=Ala Scale=1.0 Shift=0.0 PPM Start=-3.1207465171441986 PPM End=12.528391440425866
 Name=choline-trimethyl Abbr=Cho Scale=1.0 Shift=0.0 PPM Start=-3.1207465171441986 PPM End=12.528391440425866
 Name=creatine Abbr=Cr Scale=1.0 Shift=0.0 PPM Start=-3.1207465171441986 PPM End=12.528391440425866
 Name=ethanolamine Abbr=ETA Scale=1.0 Shift=0.0 PPM Start=-3.1207465171441986 PPM End=12.528391440425866
 Name=gaba Abbr=GABA Scale=1.0 Shift=0.0 PPM Start=-3.1207465171441986 PPM End=12.528391440425866
 Name=glucose-beta Abbr=Glc Scale=1.0 Shift=0.0 PPM Start=-3.1207465171441986 PPM End=12.528391440425866
 Name=glutamate Abbr=Glu Scale=1.0 Shift=0.0 PPM Start=-3.1207465171441986 PPM End=12.528391440425866
 Name=glutamine Abbr=Gln Scale=1.0 Shift=0.0 PPM Start=-3.1207465171441986 PPM End=12.528391440425866
 Name=glycine Abbr=Gly Scale=1.0 Shift=0.0 PPM Start=-3.1207465171441986 PPM End=12.528391440425866
 Name=lactate Abbr=Lac Scale=1.0 Shift=0.0 PPM Start=-3.1207465171441986 PPM End=12.528391440425866
 Name=myo-inositol Abbr=mI Scale=1.0 Shift=0.0 PPM Start=-3.1207465171441986 PPM End=12.528391440425866
 Name=n-acetylaspartate Abbr=NAA Scale=1.0 Shift=0.0 PPM Start=-3.1207465171441986 PPM End=12.528391440425866
 Name=phosphocreatine Abbr=PCr Scale=1.0 Shift=0.0 PPM Start=-3.1207465171441986 PPM End=12.528391440425866
 Name=phosphorylcholine-trimethyl Abbr=PCho Scale=1.0 Shift=0.0 PPM Start=-3.1207465171441986 PPM End=12.528391440425866
 Name=phosphorylethanolamine Abbr=PE Scale=1.0 Shift=0.0 PPM Start=-3.1207465171441986 PPM End=12.528391440425866
 Name=pyruvate Abbr=Pyr Scale=1.0 Shift=0.0 PPM Start=-3.1207465171441986 PPM End=12.528391440425866
 Name=taurine Abbr=Tau Scale=1.0 Shift=0.0 PPM Start=-3.1207465171441986 PPM End=12.528391440425866
 Name=glutathione-glutamate+glutathione-glycine-cysteine Abbr=GSH Scale=1.0 Shift=0.0 PPM Start=-3.1207565171441987 PPM End=12.528
   Mixture of [metab*scale] = glutathione-glutamate*1.000000 + glutathione-glycine-cysteine*1.000000
 
 ===========================================================================
 This LCModel format RAW file was created using the 
 Vespa-Simulation spectral simulation program using 
 the following settings and parameters 
 
 Sweep Width = 2000.0 Hz 
 Vector Size = 2048 points 
 Apodization = 10.0 Hz Gaussian broadening
 B0 Field    = 127.74 MHz 
 Ref Singlet = False
  
 $NMID ID='mI'
 FMTDAT='(2E16.6)'
 VOLUME=1.0
 TRAMP=1.0
 $END
    5.880550E+00    4.496265E-03
    5.302544E+00    2.509986E+00
    3.676270E+00    4.485648E+00
    1.367141E+00    5.514867E+00
   -1.110330E+00    5.403671E+00
   -3.217885E+00    4.222490E+00
   -4.521932E+00    2.281694E+00
   -4.792072E+00    4.893173E-02
   -4.045899E+00   -1.968770E+00
   -2.531022E+00   -3.346726E+00
   -6.520539E-01   -3.837331E+00
    1.135616E+00   -3.415530E+00
    2.436576E+00   -2.267246E+00
    3.002642E+00   -7.279360E-01
    2.777054E+00    8.091048E-01
    1.888871E+00    1.989211E+00
    6.041558E-01    2.573508E+00
   -7.490800E-01    2.480148E+00
   -1.860964E+00    1.784472E+00
   -2.505037E+00    6.835061E-01
   -2.575590E+00   -5.612131E-01
   -2.093361E+00   -1.685900E+00
   -1.183905E+00   -2.476814E+00
   -3.902049E-02   -2.803196E+00
    1.126872E+00   -2.628260E+00
    2.115388E+00   -2.001517E+00
    2.772079E+00   -1.039100E+00
    3.002293E+00    1.009315E-01
    2.776928E+00    1.243177E+00
    2.131170E+00    2.217072E+00
    1.158333E+00    2.876660E+00
   -5.197762E-04    3.118332E+00
   -1.172377E+00    2.896530E+00
   -2.174235E+00    2.235034E+00
   -2.841031E+00    1.230012E+00
   -3.055511E+00    4.139614E-02
   -2.774801E+00   -1.130013E+00
   -2.045668E+00   -2.077370E+00
   -1.002787E+00   -2.628975E+00
    1.532671E-01   -2.686938E+00
    1.195104E+00   -2.252513E+00
    1.917729E+00   -1.430510E+00
    2.185358E+00   -4.093455E-01
    1.964504E+00    5.803802E-01
    1.333251E+00    1.319013E+00
    4.634595E-01    1.650285E+00
   -4.205563E-01    1.518797E+00
   -1.097123E+00    9.830448E-01
   -1.401685E+00    1.997868E-01
   -1.266861E+00   -6.160900E-01
   -7.377097E-01   -1.246231E+00
    4.157923E-02   -1.523366E+00
    8.658222E-01   -1.372178E+00
    1.521202E+00   -8.259903E-01
    1.838567E+00   -1.579916E-02
    1.733633E+00    8.644863E-01
    1.224851E+00    1.607265E+00
    4.253345E-01    2.041384E+00
   -4.878729E-01    2.071271E+00
   -1.318068E+00    1.695544E+00
   -1.895038E+00    1.002306E+00
   -2.112059E+00    1.436150E-01
   -1.945133E+00   -7.027008E-01
   -1.451857E+00   -1.374253E+00
   -7.519090E-01   -1.757738E+00
    4.363311E-03   -1.808582E+00
    6.710097E-01   -1.553239E+00
    1.136169E+00   -1.075729E+00
    1.341289E+00   -4.935178E-01
    1.286389E+00    7.067295E-02
    1.022409E+00    5.145707E-01
    6.340618E-01    7.739843E-01
    2.183158E-01    8.305257E-01
   -1.366677E-01    7.089419E-01
   -3.676404E-01    4.662911E-01
   -4.455063E-01    1.764930E-01
   -3.767440E-01   -8.627899E-02
   -1.980372E-01   -2.621773E-01
    3.398786E-02   -3.158271E-01
    2.555555E-01   -2.411302E-01
    4.087105E-01   -6.037486E-02
    4.523704E-01    1.816852E-01
    3.697669E-01    4.273741E-01
    1.713350E-01    6.177484E-01
   -1.075293E-01    7.043099E-01
   -4.132253E-01    6.587024E-01
   -6.843809E-01    4.787793E-01
   -8.639421E-01    1.896836E-01
   -9.107704E-01   -1.605270E-01
   -8.082889E-01   -5.097621E-01
   -5.684932E-01   -7.940651E-01
   -2.301843E-01   -9.603643E-01
    1.484606E-01   -9.773013E-01
    5.012030E-01   -8.416274E-01
    7.670269E-01   -5.789506E-01
    9.023151E-01   -2.383186E-01
    8.891539E-01    1.178553E-01
    7.383328E-01    4.266568E-01
    4.861947E-01    6.372559E-01
    1.861809E-01    7.206545E-01
   -1.027393E-01    6.743426E-01
   -3.284143E-01    5.213434E-01
   -4.557291E-01    3.038614E-01
   -4.727141E-01    7.319753E-02
   -3.912987E-01   -1.215485E-01
   -2.430550E-01   -2.436961E-01
   -7.094507E-02   -2.758843E-01
    8.075486E-02   -2.223284E-01
    1.762089E-01   -1.063927E-01
    1.953265E-01    3.583118E-02
    1.372444E-01    1.643075E-01
    1.947313E-02    2.441284E-01
   -1.268394E-01    2.530574E-01
   -2.643390E-01    1.859754E-01
   -3.579203E-01    5.545598E-02
   -3.823137E-01   -1.113866E-01
   -3.274025E-01   -2.790450E-01
   -2.001348E-01   -4.113659E-01
   -2.288069E-02   -4.791265E-01
    1.714026E-01   -4.660811E-01
    3.460421E-01   -3.721524E-01
    4.681730E-01   -2.132148E-01
    5.152033E-01   -1.771085E-02
    4.791511E-01    1.792474E-01
    3.678777E-01    3.429237E-01
    2.030814E-01    4.457717E-01
    1.567031E-02    4.724838E-01
   -1.605916E-01    4.225308E-01
   -2.957196E-01    3.096085E-01
   -3.690970E-01    1.583249E-01
   -3.729899E-01   -1.202901E-03
   -3.132314E-01   -1.393815E-01
   -2.073177E-01   -2.329090E-01
   -8.024811E-02   -2.688970E-01
    4.085012E-02   -2.467192E-01
    1.321984E-01   -1.773445E-01
    1.778685E-01   -8.043411E-02
    1.724948E-01    2.009159E-02
    1.217737E-01    1.011353E-01
    4.076842E-02    1.450049E-01
   -4.953491E-02    1.428449E-01
   -1.267294E-01    9.617011E-02
   -1.716529E-01    1.633148E-02
   -1.723397E-01   -7.795168E-02
   -1.265294E-01   -1.645025E-01
   -4.220543E-02   -2.223438E-01
    6.385973E-02   -2.360937E-01
    1.694425E-01   -1.994076E-01
    2.514048E-01   -1.166106E-01
    2.905880E-01   -2.175927E-03
    2.760650E-01    1.219604E-01
    2.078321E-01    2.307793E-01
    9.721096E-02    3.014770E-01
   -3.509694E-02    3.183872E-01
   -1.631879E-01    2.766781E-01
   -2.614103E-01    1.837234E-01
   -3.099634E-01    5.781090E-02
   -2.993510E-01   -7.564288E-02
   -2.326139E-01   -1.895891E-01
   -1.247604E-01   -2.613141E-01
    6.213016E-04   -2.775296E-01
    1.166294E-01   -2.372342E-01
    1.992018E-01   -1.518218E-01
    2.325126E-01   -4.224188E-02
    2.123777E-01    6.603387E-02
    1.468497E-01    1.490142E-01
    5.390979E-02    1.896846E-01
   -4.317792E-02    1.816902E-01
   -1.215048E-01    1.302896E-01
   -1.639155E-01    5.054407E-02
   -1.627199E-01   -3.678749E-02
   -1.209362E-01   -1.104897E-01
   -5.088843E-02   -1.539230E-01
    2.932667E-02   -1.586261E-01
