 Vespa-Simulation Mixed Metabolite Output
 This file was generated by Vespa-Simulation. You can learn about and download Vespa here:
https://github.com/vespa-mrs/vespa/tree/main/vespa

 
 Output Path/Filename = /home/stud/casperc/bhome/Project1(DeepFit)/DeepFit-data-generation/DeepFitData_TE_20_lw10_2048p
 Output Loop Values = (1,1,1)  ( Loop 1 = 10, Loop 2 = 10, Loop3 Inactive )
 Output Comment
 ---------------------------------------------------------------------------
 
 
 Experiment Information
 ---------------------------------------------------------------------------
 --- Experiment 18b0168e-f5f0-4bd4-8d52-da93aba06c60 ---
 Name: SyntheticDataSetDeepFitTE20
 Public: False
 Created: 2024-10-08T09:55:07
 Comment (abbr.): 
 PI: Casper Cappelen
 b0: 127.740000
 Peak Search PPM low/high: -15.000000 / 15.000000
 Blend tol. PPM/phase: 0.001500 / 50.000000
 Pulse seq.: 43be13ae-de9a-40a1-9a2d-c872d8bjs100 (PRESS Ideal)
 0 User static parameters: 
 22 Metabolites: 2-hydroxyglutarate, GPC-pcholine2, NAAG-truncated, alanine, choline-trimethyl, creatine, ethanolamine, gaba, glucose-beta, glutamate, glutamine, glutathione-glutamate, glutathione-glycine-cysteine, glycine, lactate, myo-inositol, n-acetylaspartate, phosphocreatine, phosphorylcholine-trimethyl, phosphorylethanolamine, pyruvate, taurine
 22 Simulations: (not shown)
 
 Metabolite Formatting Information
 ---------------------------------------------------------------------------
 Name=2-hydroxyglutarate Abbr=2HG Scale=1.0 Shift=0.0 PPM Start=-3.1207465171441986 PPM End=12.528391440425866
 Name=GPC-pcholine2 Abbr=GPC Scale=1.0 Shift=0.0 PPM Start=-3.1207465171441986 PPM End=12.528391440425866
 Name=NAAG-truncated Abbr=NAAG Scale=1.0 Shift=0.0 PPM Start=-3.1207465171441986 PPM End=12.528391440425866
 Name=alanine Abbr=Ala Scale=1.0 Shift=0.0 PPM Start=-3.1207465171441986 PPM End=12.528391440425866
 Name=choline-trimethyl Abbr=Cho Scale=1.0 Shift=0.0 PPM Start=-3.1207465171441986 PPM End=12.528391440425866
 Name=creatine Abbr=Cr Scale=1.0 Shift=0.0 PPM Start=-3.1207465171441986 PPM End=12.528391440425866
 Name=ethanolamine Abbr=ETA Scale=1.0 Shift=0.0 PPM Start=-3.1207465171441986 PPM End=12.528391440425866
 Name=gaba Abbr=GABA Scale=1.0 Shift=0.0 PPM Start=-3.1207465171441986 PPM End=12.528391440425866
 Name=glucose-beta Abbr=Glc Scale=1.0 Shift=0.0 PPM Start=-3.1207465171441986 PPM End=12.528391440425866
 Name=glutamate Abbr=Glu Scale=1.0 Shift=0.0 PPM Start=-3.1207465171441986 PPM End=12.528391440425866
 Name=glutamine Abbr=Gln Scale=1.0 Shift=0.0 PPM Start=-3.1207465171441986 PPM End=12.528391440425866
 Name=glycine Abbr=Gly Scale=1.0 Shift=0.0 PPM Start=-3.1207465171441986 PPM End=12.528391440425866
 Name=lactate Abbr=Lac Scale=1.0 Shift=0.0 PPM Start=-3.1207465171441986 PPM End=12.528391440425866
 Name=myo-inositol Abbr=mI Scale=1.0 Shift=0.0 PPM Start=-3.1207465171441986 PPM End=12.528391440425866
 Name=n-acetylaspartate Abbr=NAA Scale=1.0 Shift=0.0 PPM Start=-3.1207465171441986 PPM End=12.528391440425866
 Name=phosphocreatine Abbr=PCr Scale=1.0 Shift=0.0 PPM Start=-3.1207465171441986 PPM End=12.528391440425866
 Name=phosphorylcholine-trimethyl Abbr=PCho Scale=1.0 Shift=0.0 PPM Start=-3.1207465171441986 PPM End=12.528391440425866
 Name=phosphorylethanolamine Abbr=PE Scale=1.0 Shift=0.0 PPM Start=-3.1207465171441986 PPM End=12.528391440425866
 Name=pyruvate Abbr=Pyr Scale=1.0 Shift=0.0 PPM Start=-3.1207465171441986 PPM End=12.528391440425866
 Name=taurine Abbr=Tau Scale=1.0 Shift=0.0 PPM Start=-3.1207465171441986 PPM End=12.528391440425866
 Name=glutathione-glutamate+glutathione-glycine-cysteine Abbr=GSH Scale=1.0 Shift=0.0 PPM Start=-3.1207565171441987 PPM End=12.528
   Mixture of [metab*scale] = glutathione-glutamate*1.000000 + glutathione-glycine-cysteine*1.000000
 
 ===========================================================================
 This LCModel format RAW file was created using the 
 Vespa-Simulation spectral simulation program using 
 the following settings and parameters 
 
 Sweep Width = 2000.0 Hz 
 Vector Size = 2048 points 
 Apodization = 10.0 Hz Gaussian broadening
 B0 Field    = 127.74 MHz 
 Ref Singlet = False
  
 This data has been FFTd to be in the FREQUENCY domain
 
 $NMID ID='mI'
 FMTDAT='(2E16.6)'
 VOLUME=1.0
 TRAMP=1.0
 $END
    2.873660E+00    1.396575E+01
    2.872892E+00    1.408177E+01
    2.872109E+00    1.419985E+01
    2.871313E+00    1.432002E+01
    2.870503E+00    1.444237E+01
    2.869677E+00    1.456695E+01
    2.868835E+00    1.469384E+01
    2.867975E+00    1.482311E+01
    2.867096E+00    1.495483E+01
    2.866199E+00    1.508908E+01
    2.865282E+00    1.522595E+01
    2.864348E+00    1.536553E+01
    2.863396E+00    1.550791E+01
    2.862429E+00    1.565319E+01
    2.861445E+00    1.580146E+01
    2.860445E+00    1.595282E+01
    2.859430E+00    1.610740E+01
    2.858398E+00    1.626531E+01
    2.857348E+00    1.642666E+01
    2.856282E+00    1.659160E+01
    2.855197E+00    1.676025E+01
    2.854094E+00    1.693277E+01
    2.852971E+00    1.710931E+01
    2.851828E+00    1.729004E+01
    2.850665E+00    1.747512E+01
    2.849482E+00    1.766474E+01
    2.848279E+00    1.785911E+01
    2.847057E+00    1.805842E+01
    2.845817E+00    1.826290E+01
    2.844559E+00    1.847280E+01
    2.843286E+00    1.868835E+01
    2.841997E+00    1.890984E+01
    2.840693E+00    1.913755E+01
    2.839377E+00    1.937181E+01
    2.838048E+00    1.961293E+01
    2.836709E+00    1.986129E+01
    2.835362E+00    2.011728E+01
    2.834008E+00    2.038132E+01
    2.832648E+00    2.065387E+01
    2.831286E+00    2.093543E+01
    2.829926E+00    2.122655E+01
    2.828571E+00    2.152781E+01
    2.827228E+00    2.183987E+01
    2.825907E+00    2.216345E+01
    2.824619E+00    2.249931E+01
    2.823376E+00    2.284834E+01
    2.822193E+00    2.321147E+01
    2.821087E+00    2.358976E+01
    2.820075E+00    2.398441E+01
    2.819181E+00    2.439672E+01
    2.818431E+00    2.482818E+01
    2.817858E+00    2.528047E+01
    2.817506E+00    2.575549E+01
    2.817434E+00    2.625540E+01
    2.817718E+00    2.678269E+01
    2.818463E+00    2.734023E+01
    2.819805E+00    2.793132E+01
    2.821927E+00    2.855983E+01
    2.825063E+00    2.923031E+01
    2.829513E+00    2.994814E+01
    2.835654E+00    3.071979E+01
    2.843967E+00    3.155315E+01
    2.855113E+00    3.245802E+01
    2.870122E+00    3.344690E+01
    2.890858E+00    3.453600E+01
    2.921007E+00    3.574670E+01
    2.967987E+00    3.710731E+01
    3.046298E+00    3.865481E+01
    3.182896E+00    4.043596E+01
    3.424931E+00    4.250647E+01
    3.849628E+00    4.492641E+01
    4.574866E+00    4.774962E+01
    5.767399E+00    5.100529E+01
    7.643809E+00    5.467122E+01
    1.045824E+01    5.864142E+01
    1.447157E+01    6.269435E+01
    1.990014E+01    6.647266E+01
    2.684823E+01    6.948669E+01
    3.523666E+01    7.115297E+01
    4.474640E+01    7.087128E+01
    5.479918E+01    6.813332E+01
    6.459222E+01    6.264267E+01
    7.319236E+01    5.441686E+01
    7.967781E+01    4.384052E+01
    8.329916E+01    3.164737E+01
    8.362117E+01    1.882652E+01
    8.060890E+01    6.469906E+00
    7.463456E+01   -4.404680E+00
    6.640342E+01   -1.301291E+01
    5.681871E+01   -1.890899E+01
    4.682103E+01   -2.201632E+01
    3.724106E+01   -2.258480E+01
    2.869638E+01   -2.109462E+01
    2.154703E+01   -1.813691E+01
    1.590726E+01   -1.430157E+01
    1.169742E+01   -1.009422E+01
    8.714548E+00   -5.891655E+00
    6.701557E+00   -1.933310E+00
    5.401589E+00    1.661219E+00
    4.592091E+00    4.861456E+00
    4.099696E+00    7.693098E+00
    3.800888E+00    1.021006E+01
    3.614461E+00    1.247464E+01
    3.490882E+00    1.454582E+01
    3.401983E+00    1.647395E+01
    3.332685E+00    1.829970E+01
    3.275199E+00    2.005524E+01
    3.225447E+00    2.176625E+01
    3.181123E+00    2.345407E+01
    3.140810E+00    2.513740E+01
    3.103699E+00    2.683367E+01
    3.069606E+00    2.856010E+01
    3.039193E+00    3.033462E+01
    3.014444E+00    3.217684E+01
    2.999603E+00    3.410899E+01
    3.002845E+00    3.615681E+01
    3.038930E+00    3.834989E+01
    3.132857E+00    4.072059E+01
    3.324017E+00    4.330082E+01
    3.669512E+00    4.611552E+01
    4.244413E+00    4.917277E+01
    5.136137E+00    5.245204E+01
    6.430749E+00    5.589399E+01
    8.191269E+00    5.939766E+01
    1.043220E+01    6.283116E+01
    1.309916E+01    6.605934E+01
    1.606552E+01    6.898592E+01
    1.915625E+01    7.159878E+01
    2.220134E+01    7.400011E+01
    2.510840E+01    7.640148E+01
    2.793018E+01    7.907199E+01
    3.089590E+01    8.224469E+01
    3.438058E+01    8.600747E+01
    3.880561E+01    9.022076E+01
    4.449344E+01    9.450558E+01
    5.152635E+01    9.832711E+01
    5.967236E+01    1.011631E+02
    6.842869E+01    1.027055E+02
    7.719433E+01    1.030145E+02
    8.552860E+01    1.025442E+02
    9.340392E+01    1.019955E+02
    1.013405E+02    1.020161E+02
    1.103363E+02    1.028370E+02
    1.215714E+02    1.039845E+02
    1.359584E+02    1.041973E+02
    1.536788E+02    1.016247E+02
    1.738789E+02    9.428061E+01
    1.946558E+02    8.062974E+01
    2.133739E+02    6.012039E+01
    2.272369E+02    3.348408E+01
    2.339484E+02    2.693664E+00
    2.322622E+02   -2.941589E+01
    2.222613E+02   -5.975018E+01
    2.052956E+02   -8.560173E+01
    1.836180E+02   -1.051584E+02
    1.598472E+02   -1.177504E+02
    1.364160E+02   -1.238028E+02
    1.151525E+02   -1.245493E+02
    9.707409E+01   -1.216202E+02
    8.240702E+01   -1.166311E+02
    7.077663E+01   -1.108749E+02
    6.148254E+01   -1.051680E+02
    5.376907E+01   -9.984946E+01
    4.702528E+01   -9.489341E+01
    4.088482E+01   -9.007207E+01
    3.523113E+01   -8.511430E+01
    3.013717E+01   -7.982003E+01
    2.577757E+01   -7.411668E+01
    2.234563E+01   -6.806438E+01
    1.999381E+01   -6.182897E+01
    1.880146E+01   -5.564315E+01
    1.876290E+01   -4.976966E+01
    1.978591E+01   -4.447083E+01
