 Vespa-Simulation Mixed Metabolite Output
 This file was generated by Vespa-Simulation. You can learn about and download Vespa here:
https://github.com/vespa-mrs/vespa/tree/main/vespa

 
 Output Path/Filename = /home/stud/casperc/bhome/Project1(DeepFit)/DeepFit-data-generation/DeepFitData_TE_20_lw10_2048p
 Output Loop Values = (1,1,1)  ( Loop 1 = 10, Loop 2 = 10, Loop3 Inactive )
 Output Comment
 ---------------------------------------------------------------------------
 
 
 Experiment Information
 ---------------------------------------------------------------------------
 --- Experiment 18b0168e-f5f0-4bd4-8d52-da93aba06c60 ---
 Name: SyntheticDataSetDeepFitTE20
 Public: False
 Created: 2024-10-08T09:55:07
 Comment (abbr.): 
 PI: Casper Cappelen
 b0: 127.740000
 Peak Search PPM low/high: -15.000000 / 15.000000
 Blend tol. PPM/phase: 0.001500 / 50.000000
 Pulse seq.: 43be13ae-de9a-40a1-9a2d-c872d8bjs100 (PRESS Ideal)
 0 User static parameters: 
 22 Metabolites: 2-hydroxyglutarate, GPC-pcholine2, NAAG-truncated, alanine, choline-trimethyl, creatine, ethanolamine, gaba, glucose-beta, glutamate, glutamine, glutathione-glutamate, glutathione-glycine-cysteine, glycine, lactate, myo-inositol, n-acetylaspartate, phosphocreatine, phosphorylcholine-trimethyl, phosphorylethanolamine, pyruvate, taurine
 22 Simulations: (not shown)
 
 Metabolite Formatting Information
 ---------------------------------------------------------------------------
 Name=2-hydroxyglutarate Abbr=2HG Scale=1.0 Shift=0.0 PPM Start=-3.1207465171441986 PPM End=12.528391440425866
 Name=GPC-pcholine2 Abbr=GPC Scale=1.0 Shift=0.0 PPM Start=-3.1207465171441986 PPM End=12.528391440425866
 Name=NAAG-truncated Abbr=NAAG Scale=1.0 Shift=0.0 PPM Start=-3.1207465171441986 PPM End=12.528391440425866
 Name=alanine Abbr=Ala Scale=1.0 Shift=0.0 PPM Start=-3.1207465171441986 PPM End=12.528391440425866
 Name=choline-trimethyl Abbr=Cho Scale=1.0 Shift=0.0 PPM Start=-3.1207465171441986 PPM End=12.528391440425866
 Name=creatine Abbr=Cr Scale=1.0 Shift=0.0 PPM Start=-3.1207465171441986 PPM End=12.528391440425866
 Name=ethanolamine Abbr=ETA Scale=1.0 Shift=0.0 PPM Start=-3.1207465171441986 PPM End=12.528391440425866
 Name=gaba Abbr=GABA Scale=1.0 Shift=0.0 PPM Start=-3.1207465171441986 PPM End=12.528391440425866
 Name=glucose-beta Abbr=Glc Scale=1.0 Shift=0.0 PPM Start=-3.1207465171441986 PPM End=12.528391440425866
 Name=glutamate Abbr=Glu Scale=1.0 Shift=0.0 PPM Start=-3.1207465171441986 PPM End=12.528391440425866
 Name=glutamine Abbr=Gln Scale=1.0 Shift=0.0 PPM Start=-3.1207465171441986 PPM End=12.528391440425866
 Name=glycine Abbr=Gly Scale=1.0 Shift=0.0 PPM Start=-3.1207465171441986 PPM End=12.528391440425866
 Name=lactate Abbr=Lac Scale=1.0 Shift=0.0 PPM Start=-3.1207465171441986 PPM End=12.528391440425866
 Name=myo-inositol Abbr=mI Scale=1.0 Shift=0.0 PPM Start=-3.1207465171441986 PPM End=12.528391440425866
 Name=n-acetylaspartate Abbr=NAA Scale=1.0 Shift=0.0 PPM Start=-3.1207465171441986 PPM End=12.528391440425866
 Name=phosphocreatine Abbr=PCr Scale=1.0 Shift=0.0 PPM Start=-3.1207465171441986 PPM End=12.528391440425866
 Name=phosphorylcholine-trimethyl Abbr=PCho Scale=1.0 Shift=0.0 PPM Start=-3.1207465171441986 PPM End=12.528391440425866
 Name=phosphorylethanolamine Abbr=PE Scale=1.0 Shift=0.0 PPM Start=-3.1207465171441986 PPM End=12.528391440425866
 Name=pyruvate Abbr=Pyr Scale=1.0 Shift=0.0 PPM Start=-3.1207465171441986 PPM End=12.528391440425866
 Name=taurine Abbr=Tau Scale=1.0 Shift=0.0 PPM Start=-3.1207465171441986 PPM End=12.528391440425866
 Name=glutathione-glutamate+glutathione-glycine-cysteine Abbr=GSH Scale=1.0 Shift=0.0 PPM Start=-3.1207565171441987 PPM End=12.528
   Mixture of [metab*scale] = glutathione-glutamate*1.000000 + glutathione-glycine-cysteine*1.000000
 
 ===========================================================================
 This LCModel format RAW file was created using the 
 Vespa-Simulation spectral simulation program using 
 the following settings and parameters 
 
 Sweep Width = 2000.0 Hz 
 Vector Size = 2048 points 
 Apodization = 10.0 Hz Gaussian broadening
 B0 Field    = 127.74 MHz 
 Ref Singlet = False
  
 $NMID ID='NAA'
 FMTDAT='(2E16.6)'
 VOLUME=1.0
 TRAMP=1.0
 $END
    6.526743E+00    1.608018E-02
    3.671835E+00    3.233748E+00
   -1.894173E+00    3.928195E+00
   -4.517508E+00    1.523205E+00
   -1.948935E+00   -1.963867E+00
    2.605873E+00   -3.399526E+00
    4.395766E+00   -1.351918E+00
    2.194069E+00    2.303546E+00
   -1.044653E+00    4.020514E+00
   -2.000780E+00    2.223198E+00
   -4.703353E-01   -9.287311E-01
    1.137465E+00   -1.902783E+00
    9.554965E-01    1.741350E-01
   -4.628905E-01    2.529943E+00
   -1.264389E+00    2.133244E+00
   -5.573085E-01   -5.403638E-01
    7.857687E-01   -2.020812E+00
    1.239150E+00   -1.581008E-01
    1.544960E-01    3.017880E+00
   -1.685445E+00    3.544897E+00
   -2.702174E+00    3.206904E-01
   -1.792221E+00   -3.344993E+00
    5.793075E-01   -3.402200E+00
    2.407905E+00    3.013151E-01
    1.746153E+00    3.809967E+00
   -1.213479E+00    3.443866E+00
   -3.801630E+00   -2.903264E-01
   -3.267556E+00   -3.507443E+00
    1.863718E-01   -3.210858E+00
    3.195944E+00   -1.736119E-01
    2.617369E+00    2.340476E+00
   -9.615629E-01    2.087894E+00
   -3.674689E+00   -2.422165E-01
   -2.585772E+00   -2.210770E+00
    1.024822E+00   -2.139463E+00
    3.126778E+00   -4.240382E-01
    1.530477E+00    1.164045E+00
   -1.701541E+00    1.173844E+00
   -2.764811E+00   -3.058157E-01
   -5.199320E-01   -1.770402E+00
    2.339188E+00   -1.671434E+00
    2.546162E+00    3.523133E-02
   -6.825246E-03    1.653380E+00
   -2.327624E+00    1.360649E+00
   -1.843299E+00   -7.400716E-01
    8.059713E-01   -2.438096E+00
    2.700674E+00   -1.684653E+00
    1.923825E+00    9.809875E-01
   -5.500669E-01    2.744964E+00
   -2.142669E+00    1.559593E+00
   -1.394910E+00   -1.415886E+00
    7.671955E-01   -2.927366E+00
    2.190926E+00   -1.237073E+00
    1.607831E+00    1.855001E+00
   -3.252217E-01    2.979981E+00
   -1.775296E+00    9.655414E-01
   -1.427881E+00   -1.897581E+00
    3.438037E-01   -2.487346E+00
    1.812961E+00   -3.085824E-01
    1.505874E+00    2.117183E+00
   -3.198853E-01    2.188299E+00
   -1.822080E+00    3.029196E-02
   -1.405560E+00   -1.876199E+00
    5.327432E-01   -1.554409E+00
    1.902570E+00    4.346022E-01
    1.149734E+00    1.845219E+00
   -9.546350E-01    1.254641E+00
   -2.069268E+00   -5.681236E-01
   -8.886374E-01   -1.671147E+00
    1.317867E+00   -9.866200E-01
    2.070984E+00    7.004950E-01
    4.778109E-01    1.665018E+00
   -1.723243E+00    9.608774E-01
   -2.091983E+00   -7.122632E-01
   -2.088884E-01   -1.717484E+00
    1.879957E+00   -1.051965E+00
    1.947243E+00    6.720766E-01
   -9.089866E-03    1.775323E+00
   -1.866403E+00    1.136303E+00
   -1.732643E+00   -6.496524E-01
    1.079440E-01   -1.799918E+00
    1.670365E+00   -1.140335E+00
    1.443084E+00    6.494536E-01
   -1.462023E-01    1.713010E+00
   -1.378072E+00    9.756245E-01
   -1.095397E+00   -7.111410E-01
    2.260891E-01   -1.513603E+00
    1.142791E+00   -6.266959E-01
    7.780278E-01    8.791234E-01
   -3.663969E-01    1.303411E+00
   -1.032353E+00    2.263906E-01
   -5.311792E-01   -1.067366E+00
    5.724377E-01   -1.085369E+00
    1.069659E+00    1.882091E-01
    3.780059E-01    1.304964E+00
   -8.189412E-01    9.930963E-01
   -1.244766E+00   -4.381880E-01
   -3.689698E-01   -1.455331E+00
    9.744442E-01   -9.661683E-01
    1.394339E+00    5.337219E-01
    3.934137E-01    1.512505E+00
   -1.060661E+00    9.962401E-01
   -1.497949E+00   -4.735755E-01
   -4.671595E-01   -1.442014E+00
    9.904245E-01   -1.008333E+00
    1.422843E+00    3.332225E-01
    4.570490E-01    1.255359E+00
   -8.690059E-01    9.253940E-01
   -1.233749E+00   -2.320718E-01
   -3.799461E-01   -1.038894E+00
    7.183295E-01   -7.638804E-01
    9.522797E-01    1.998267E-01
    2.092901E-01    8.196751E-01
   -6.231147E-01    5.162799E-01
   -6.762177E-01   -2.833484E-01
    5.211738E-03   -6.728564E-01
    6.031343E-01   -2.644002E-01
    4.623000E-01    4.263147E-01
   -2.196868E-01    5.940670E-01
   -6.537043E-01    5.014168E-02
   -3.409977E-01   -5.818755E-01
    3.858119E-01   -5.753129E-01
    7.272334E-01    8.804636E-02
    2.839732E-01    6.963030E-01
   -5.011574E-01    5.836792E-01
   -8.003423E-01   -1.510199E-01
   -2.780659E-01   -7.506680E-01
    5.408789E-01   -5.974074E-01
    8.117570E-01    1.510243E-01
    2.543017E-01    7.366347E-01
   -5.544876E-01    5.801323E-01
   -7.877052E-01   -1.452256E-01
   -2.284475E-01   -7.091001E-01
    5.257193E-01   -5.648588E-01
    7.087822E-01    1.172852E-01
    1.764185E-01    6.433253E-01
   -4.863798E-01    5.006863E-01
   -6.096368E-01   -1.383249E-01
   -1.194888E-01   -6.124861E-01
    4.418437E-01   -4.540623E-01
    5.165020E-01    1.438379E-01
    8.516444E-02    5.496713E-01
   -3.735483E-01    3.611546E-01
   -4.091862E-01   -1.881904E-01
   -3.545648E-02   -5.039051E-01
    3.376235E-01   -2.743022E-01
    3.466497E-01    2.170699E-01
    2.210669E-02    4.310030E-01
   -2.814722E-01    1.666473E-01
   -2.621062E-01   -2.475535E-01
    3.502742E-02   -3.494042E-01
    2.842770E-01   -5.516611E-02
    2.238943E-01    2.797029E-01
   -7.406760E-02    2.838219E-01
   -2.827345E-01   -2.331674E-02
   -1.699492E-01   -2.832774E-01
    1.463493E-01   -2.134013E-01
    3.168961E-01    9.514762E-02
    1.405284E-01    3.028159E-01
   -2.043052E-01    1.963201E-01
   -3.423875E-01   -1.019495E-01
   -1.125873E-01   -2.843767E-01
    2.456420E-01   -1.770873E-01
    3.470205E-01    1.027487E-01
    8.103474E-02    2.810298E-01
   -2.681898E-01    1.940339E-01
   -3.343505E-01   -6.750428E-02
   -6.269156E-02   -2.548745E-01
    2.471792E-01   -1.960904E-01
    2.785966E-01    4.604178E-02
    2.852427E-02    2.357436E-01
   -2.202823E-01    1.911639E-01
   -2.215142E-01   -3.720118E-02
   -1.085421E-02   -2.162335E-01
