 Vespa-Simulation Mixed Metabolite Output
 This file was generated by Vespa-Simulation. You can learn about and download Vespa here:
https://github.com/vespa-mrs/vespa/tree/main/vespa

 
 Output Path/Filename = /home/stud/casperc/bhome/Project1(DeepFit)/DeepFit-data-generation/DeepFitData_TE_20_lw10_2048p
 Output Loop Values = (1,1,1)  ( Loop 1 = 10, Loop 2 = 10, Loop3 Inactive )
 Output Comment
 ---------------------------------------------------------------------------
 
 
 Experiment Information
 ---------------------------------------------------------------------------
 --- Experiment 18b0168e-f5f0-4bd4-8d52-da93aba06c60 ---
 Name: SyntheticDataSetDeepFitTE20
 Public: False
 Created: 2024-10-08T09:55:07
 Comment (abbr.): 
 PI: Casper Cappelen
 b0: 127.740000
 Peak Search PPM low/high: -15.000000 / 15.000000
 Blend tol. PPM/phase: 0.001500 / 50.000000
 Pulse seq.: 43be13ae-de9a-40a1-9a2d-c872d8bjs100 (PRESS Ideal)
 0 User static parameters: 
 22 Metabolites: 2-hydroxyglutarate, GPC-pcholine2, NAAG-truncated, alanine, choline-trimethyl, creatine, ethanolamine, gaba, glucose-beta, glutamate, glutamine, glutathione-glutamate, glutathione-glycine-cysteine, glycine, lactate, myo-inositol, n-acetylaspartate, phosphocreatine, phosphorylcholine-trimethyl, phosphorylethanolamine, pyruvate, taurine
 22 Simulations: (not shown)
 
 Metabolite Formatting Information
 ---------------------------------------------------------------------------
 Name=2-hydroxyglutarate Abbr=2HG Scale=1.0 Shift=0.0 PPM Start=-3.1207465171441986 PPM End=12.528391440425866
 Name=GPC-pcholine2 Abbr=GPC Scale=1.0 Shift=0.0 PPM Start=-3.1207465171441986 PPM End=12.528391440425866
 Name=NAAG-truncated Abbr=NAAG Scale=1.0 Shift=0.0 PPM Start=-3.1207465171441986 PPM End=12.528391440425866
 Name=alanine Abbr=Ala Scale=1.0 Shift=0.0 PPM Start=-3.1207465171441986 PPM End=12.528391440425866
 Name=choline-trimethyl Abbr=Cho Scale=1.0 Shift=0.0 PPM Start=-3.1207465171441986 PPM End=12.528391440425866
 Name=creatine Abbr=Cr Scale=1.0 Shift=0.0 PPM Start=-3.1207465171441986 PPM End=12.528391440425866
 Name=ethanolamine Abbr=ETA Scale=1.0 Shift=0.0 PPM Start=-3.1207465171441986 PPM End=12.528391440425866
 Name=gaba Abbr=GABA Scale=1.0 Shift=0.0 PPM Start=-3.1207465171441986 PPM End=12.528391440425866
 Name=glucose-beta Abbr=Glc Scale=1.0 Shift=0.0 PPM Start=-3.1207465171441986 PPM End=12.528391440425866
 Name=glutamate Abbr=Glu Scale=1.0 Shift=0.0 PPM Start=-3.1207465171441986 PPM End=12.528391440425866
 Name=glutamine Abbr=Gln Scale=1.0 Shift=0.0 PPM Start=-3.1207465171441986 PPM End=12.528391440425866
 Name=glycine Abbr=Gly Scale=1.0 Shift=0.0 PPM Start=-3.1207465171441986 PPM End=12.528391440425866
 Name=lactate Abbr=Lac Scale=1.0 Shift=0.0 PPM Start=-3.1207465171441986 PPM End=12.528391440425866
 Name=myo-inositol Abbr=mI Scale=1.0 Shift=0.0 PPM Start=-3.1207465171441986 PPM End=12.528391440425866
 Name=n-acetylaspartate Abbr=NAA Scale=1.0 Shift=0.0 PPM Start=-3.1207465171441986 PPM End=12.528391440425866
 Name=phosphocreatine Abbr=PCr Scale=1.0 Shift=0.0 PPM Start=-3.1207465171441986 PPM End=12.528391440425866
 Name=phosphorylcholine-trimethyl Abbr=PCho Scale=1.0 Shift=0.0 PPM Start=-3.1207465171441986 PPM End=12.528391440425866
 Name=phosphorylethanolamine Abbr=PE Scale=1.0 Shift=0.0 PPM Start=-3.1207465171441986 PPM End=12.528391440425866
 Name=pyruvate Abbr=Pyr Scale=1.0 Shift=0.0 PPM Start=-3.1207465171441986 PPM End=12.528391440425866
 Name=taurine Abbr=Tau Scale=1.0 Shift=0.0 PPM Start=-3.1207465171441986 PPM End=12.528391440425866
 Name=glutathione-glutamate+glutathione-glycine-cysteine Abbr=GSH Scale=1.0 Shift=0.0 PPM Start=-3.1207565171441987 PPM End=12.528
   Mixture of [metab*scale] = glutathione-glutamate*1.000000 + glutathione-glycine-cysteine*1.000000
 
 ===========================================================================
 This LCModel format RAW file was created using the 
 Vespa-Simulation spectral simulation program using 
 the following settings and parameters 
 
 Sweep Width = 2000.0 Hz 
 Vector Size = 2048 points 
 Apodization = 10.0 Hz Gaussian broadening
 B0 Field    = 127.74 MHz 
 Ref Singlet = False
  
 This data has been FFTd to be in the FREQUENCY domain
 
 $NMID ID='NAA'
 FMTDAT='(2E16.6)'
 VOLUME=1.0
 TRAMP=1.0
 $END
    3.843247E+00    1.016603E+01
    3.871418E+00    1.034541E+01
    3.900463E+00    1.053489E+01
    3.930842E+00    1.073616E+01
    3.963484E+00    1.095104E+01
    3.999815E+00    1.118127E+01
    4.041650E+00    1.142833E+01
    4.090975E+00    1.169332E+01
    4.149675E+00    1.197704E+01
    4.219335E+00    1.228027E+01
    4.301235E+00    1.260417E+01
    4.396617E+00    1.295072E+01
    4.507205E+00    1.332299E+01
    4.635901E+00    1.372517E+01
    4.787521E+00    1.416235E+01
    4.969486E+00    1.463993E+01
    5.192437E+00    1.516286E+01
    5.470739E+00    1.573446E+01
    5.822769E+00    1.635489E+01
    6.270649E+00    1.701891E+01
    6.838877E+00    1.771333E+01
    7.551258E+00    1.841446E+01
    8.425919E+00    1.908693E+01
    9.468999E+00    1.968525E+01
    1.066878E+01    2.015921E+01
    1.199290E+01    2.046302E+01
    1.339103E+01    2.056610E+01
    1.480415E+01    2.046171E+01
    1.617829E+01    2.016937E+01
    1.747826E+01    1.972847E+01
    1.869560E+01    1.918435E+01
    1.984666E+01    1.857192E+01
    2.096085E+01    1.790350E+01
    2.206420E+01    1.716651E+01
    2.316527E+01    1.633170E+01
    2.424968E+01    1.536776E+01
    2.528491E+01    1.425510E+01
    2.623170E+01    1.299269E+01
    2.705576E+01    1.159596E+01
    2.773410E+01    1.008866E+01
    2.825397E+01    8.494120E+00
    2.860662E+01    6.830832E+00
    2.878070E+01    5.114471E+00
    2.875975E+01    3.364494E+00
    2.852606E+01    1.611117E+00
    2.806970E+01   -1.020973E-01
    2.739852E+01   -1.723002E+00
    2.654375E+01   -3.202523E+00
    2.555669E+01   -4.508997E+00
    2.449618E+01   -5.638620E+00
    2.341077E+01   -6.616116E+00
    2.232324E+01   -7.483672E+00
    2.122494E+01   -8.281845E+00
    2.008326E+01   -9.030447E+00
    1.885957E+01   -9.717963E+00
    1.752985E+01   -1.030417E+01
    1.609928E+01   -1.073455E+01
    1.460511E+01   -1.095993E+01
    1.310790E+01   -1.095330E+01
    1.167562E+01   -1.071772E+01
    1.036764E+01   -1.028431E+01
    9.223686E+00   -9.702567E+00
    8.260195E+00   -9.028256E+00
    7.473101E+00   -8.312805E+00
    6.844191E+00   -7.596884E+00
    6.348155E+00   -6.908308E+00
    5.958291E+00   -6.263103E+00
    5.650112E+00   -5.668127E+00
    5.403074E+00   -5.123945E+00
    5.201038E+00   -4.627273E+00
    5.032064E+00   -4.172839E+00
    4.887892E+00   -3.754735E+00
    4.763248E+00   -3.367403E+00
    4.655032E+00   -3.006290E+00
    4.561443E+00   -2.668142E+00
    4.481172E+00   -2.350944E+00
    4.412814E+00   -2.053566E+00
    4.354593E+00   -1.775256E+00
    4.304396E+00   -1.515179E+00
    4.260021E+00   -1.272129E+00
    4.219497E+00   -1.044470E+00
    4.181323E+00   -8.302730E-01
    4.144571E+00   -6.275506E-01
    4.108834E+00   -4.344814E-01
    4.074088E+00   -2.495587E-01
    4.040509E+00   -7.163977E-02
    4.008331E+00    1.000869E-01
    3.977747E+00    2.661800E-01
    3.948865E+00    4.270330E-01
    3.921707E+00    5.829472E-01
    3.896229E+00    7.341805E-01
    3.872344E+00    8.809746E-01
    3.849941E+00    1.023566E+00
    3.828907E+00    1.162189E+00
    3.809129E+00    1.297072E+00
    3.790500E+00    1.428442E+00
    3.772927E+00    1.556513E+00
    3.756327E+00    1.681491E+00
    3.740628E+00    1.803572E+00
    3.725769E+00    1.922935E+00
    3.711695E+00    2.039747E+00
    3.698358E+00    2.154161E+00
    3.685713E+00    2.266317E+00
    3.673715E+00    2.376347E+00
    3.662322E+00    2.484371E+00
    3.651495E+00    2.590507E+00
    3.641194E+00    2.694864E+00
    3.631384E+00    2.797546E+00
    3.622031E+00    2.898653E+00
    3.613105E+00    2.998279E+00
    3.604574E+00    3.096515E+00
    3.596412E+00    3.193449E+00
    3.588595E+00    3.289165E+00
    3.581101E+00    3.383746E+00
    3.573914E+00    3.477268E+00
    3.567019E+00    3.569805E+00
    3.560406E+00    3.661423E+00
    3.554063E+00    3.752185E+00
    3.547980E+00    3.842149E+00
    3.542145E+00    3.931368E+00
    3.536547E+00    4.019895E+00
    3.531172E+00    4.107780E+00
    3.526009E+00    4.195071E+00
    3.521045E+00    4.281816E+00
    3.516269E+00    4.368060E+00
    3.511670E+00    4.453850E+00
    3.507236E+00    4.539229E+00
    3.502955E+00    4.624242E+00
    3.498820E+00    4.708933E+00
    3.494822E+00    4.793347E+00
    3.490955E+00    4.877524E+00
    3.487216E+00    4.961508E+00
    3.483603E+00    5.045335E+00
    3.480113E+00    5.129043E+00
    3.476744E+00    5.212666E+00
    3.473494E+00    5.296236E+00
    3.470358E+00    5.379786E+00
    3.467334E+00    5.463347E+00
    3.464418E+00    5.546949E+00
    3.461604E+00    5.630624E+00
    3.458889E+00    5.714401E+00
    3.456268E+00    5.798312E+00
    3.453736E+00    5.882386E+00
    3.451290E+00    5.966654E+00
    3.448923E+00    6.051147E+00
    3.446632E+00    6.135896E+00
    3.444413E+00    6.220934E+00
    3.442262E+00    6.306291E+00
    3.440178E+00    6.392000E+00
    3.438158E+00    6.478094E+00
    3.436203E+00    6.564605E+00
    3.434311E+00    6.651563E+00
    3.432483E+00    6.739000E+00
    3.430719E+00    6.826947E+00
    3.429020E+00    6.915431E+00
    3.427384E+00    7.004483E+00
    3.425809E+00    7.094131E+00
    3.424292E+00    7.184407E+00
    3.422828E+00    7.275341E+00
    3.421414E+00    7.366969E+00
    3.420046E+00    7.459328E+00
    3.418722E+00    7.552454E+00
    3.417445E+00    7.646387E+00
    3.416217E+00    7.741166E+00
    3.415044E+00    7.836828E+00
    3.413931E+00    7.933405E+00
    3.412881E+00    8.030931E+00
    3.411896E+00    8.129437E+00
    3.410973E+00    8.228955E+00
    3.410106E+00    8.329518E+00
    3.409286E+00    8.431166E+00
    3.408505E+00    8.533941E+00
    3.407755E+00    8.637891E+00
