 Vespa-Simulation Mixed Metabolite Output
 This file was generated by Vespa-Simulation. You can learn about and download Vespa here:
https://github.com/vespa-mrs/vespa/tree/main/vespa

 
 Output Path/Filename = /home/stud/casperc/bhome/Project1(DeepFit)/DeepFit-data-generation/DeepFitData_TE_20_lw10_2048p
 Output Loop Values = (1,1,1)  ( Loop 1 = 10, Loop 2 = 10, Loop3 Inactive )
 Output Comment
 ---------------------------------------------------------------------------
 
 
 Experiment Information
 ---------------------------------------------------------------------------
 --- Experiment 18b0168e-f5f0-4bd4-8d52-da93aba06c60 ---
 Name: SyntheticDataSetDeepFitTE20
 Public: False
 Created: 2024-10-08T09:55:07
 Comment (abbr.): 
 PI: Casper Cappelen
 b0: 127.740000
 Peak Search PPM low/high: -15.000000 / 15.000000
 Blend tol. PPM/phase: 0.001500 / 50.000000
 Pulse seq.: 43be13ae-de9a-40a1-9a2d-c872d8bjs100 (PRESS Ideal)
 0 User static parameters: 
 22 Metabolites: 2-hydroxyglutarate, GPC-pcholine2, NAAG-truncated, alanine, choline-trimethyl, creatine, ethanolamine, gaba, glucose-beta, glutamate, glutamine, glutathione-glutamate, glutathione-glycine-cysteine, glycine, lactate, myo-inositol, n-acetylaspartate, phosphocreatine, phosphorylcholine-trimethyl, phosphorylethanolamine, pyruvate, taurine
 22 Simulations: (not shown)
 
 Metabolite Formatting Information
 ---------------------------------------------------------------------------
 Name=2-hydroxyglutarate Abbr=2HG Scale=1.0 Shift=0.0 PPM Start=-3.1207465171441986 PPM End=12.528391440425866
 Name=GPC-pcholine2 Abbr=GPC Scale=1.0 Shift=0.0 PPM Start=-3.1207465171441986 PPM End=12.528391440425866
 Name=NAAG-truncated Abbr=NAAG Scale=1.0 Shift=0.0 PPM Start=-3.1207465171441986 PPM End=12.528391440425866
 Name=alanine Abbr=Ala Scale=1.0 Shift=0.0 PPM Start=-3.1207465171441986 PPM End=12.528391440425866
 Name=choline-trimethyl Abbr=Cho Scale=1.0 Shift=0.0 PPM Start=-3.1207465171441986 PPM End=12.528391440425866
 Name=creatine Abbr=Cr Scale=1.0 Shift=0.0 PPM Start=-3.1207465171441986 PPM End=12.528391440425866
 Name=ethanolamine Abbr=ETA Scale=1.0 Shift=0.0 PPM Start=-3.1207465171441986 PPM End=12.528391440425866
 Name=gaba Abbr=GABA Scale=1.0 Shift=0.0 PPM Start=-3.1207465171441986 PPM End=12.528391440425866
 Name=glucose-beta Abbr=Glc Scale=1.0 Shift=0.0 PPM Start=-3.1207465171441986 PPM End=12.528391440425866
 Name=glutamate Abbr=Glu Scale=1.0 Shift=0.0 PPM Start=-3.1207465171441986 PPM End=12.528391440425866
 Name=glutamine Abbr=Gln Scale=1.0 Shift=0.0 PPM Start=-3.1207465171441986 PPM End=12.528391440425866
 Name=glycine Abbr=Gly Scale=1.0 Shift=0.0 PPM Start=-3.1207465171441986 PPM End=12.528391440425866
 Name=lactate Abbr=Lac Scale=1.0 Shift=0.0 PPM Start=-3.1207465171441986 PPM End=12.528391440425866
 Name=myo-inositol Abbr=mI Scale=1.0 Shift=0.0 PPM Start=-3.1207465171441986 PPM End=12.528391440425866
 Name=n-acetylaspartate Abbr=NAA Scale=1.0 Shift=0.0 PPM Start=-3.1207465171441986 PPM End=12.528391440425866
 Name=phosphocreatine Abbr=PCr Scale=1.0 Shift=0.0 PPM Start=-3.1207465171441986 PPM End=12.528391440425866
 Name=phosphorylcholine-trimethyl Abbr=PCho Scale=1.0 Shift=0.0 PPM Start=-3.1207465171441986 PPM End=12.528391440425866
 Name=phosphorylethanolamine Abbr=PE Scale=1.0 Shift=0.0 PPM Start=-3.1207465171441986 PPM End=12.528391440425866
 Name=pyruvate Abbr=Pyr Scale=1.0 Shift=0.0 PPM Start=-3.1207465171441986 PPM End=12.528391440425866
 Name=taurine Abbr=Tau Scale=1.0 Shift=0.0 PPM Start=-3.1207465171441986 PPM End=12.528391440425866
 Name=glutathione-glutamate+glutathione-glycine-cysteine Abbr=GSH Scale=1.0 Shift=0.0 PPM Start=-3.1207565171441987 PPM End=12.528
   Mixture of [metab*scale] = glutathione-glutamate*1.000000 + glutathione-glycine-cysteine*1.000000
 
 ===========================================================================
 This LCModel format RAW file was created using the 
 Vespa-Simulation spectral simulation program using 
 the following settings and parameters 
 
 Sweep Width = 2000.0 Hz 
 Vector Size = 2048 points 
 Apodization = 10.0 Hz Gaussian broadening
 B0 Field    = 127.74 MHz 
 Ref Singlet = False
  
 This data has been FFTd to be in the FREQUENCY domain
 
 $NMID ID='NAAG'
 FMTDAT='(2E16.6)'
 VOLUME=1.0
 TRAMP=1.0
 $END
    5.000195E-01    8.469721E-01
    5.000125E-01    8.499466E-01
    5.000053E-01    8.529376E-01
    4.999979E-01    8.559453E-01
    4.999902E-01    8.589701E-01
    4.999825E-01    8.620124E-01
    4.999753E-01    8.650726E-01
    4.999693E-01    8.681508E-01
    4.999651E-01    8.712470E-01
    4.999633E-01    8.743604E-01
    4.999641E-01    8.774903E-01
    4.999672E-01    8.806359E-01
    4.999718E-01    8.837967E-01
    4.999772E-01    8.869726E-01
    4.999826E-01    8.901637E-01
    4.999873E-01    8.933707E-01
    4.999910E-01    8.965941E-01
    4.999934E-01    8.998344E-01
    4.999944E-01    9.030923E-01
    4.999940E-01    9.063685E-01
    4.999921E-01    9.096638E-01
    4.999893E-01    9.129788E-01
    4.999862E-01    9.163142E-01
    4.999838E-01    9.196703E-01
    4.999829E-01    9.230467E-01
    4.999841E-01    9.264429E-01
    4.999877E-01    9.298578E-01
    4.999930E-01    9.332906E-01
    4.999995E-01    9.367409E-01
    5.000059E-01    9.402084E-01
    5.000112E-01    9.436936E-01
    5.000147E-01    9.471971E-01
    5.000155E-01    9.507200E-01
    5.000134E-01    9.542635E-01
    5.000085E-01    9.578286E-01
    5.000010E-01    9.614168E-01
    4.999917E-01    9.650291E-01
    4.999816E-01    9.686664E-01
    4.999720E-01    9.723293E-01
    4.999645E-01    9.760177E-01
    4.999604E-01    9.797311E-01
    4.999609E-01    9.834682E-01
    4.999664E-01    9.872275E-01
    4.999767E-01    9.910071E-01
    4.999904E-01    9.948054E-01
    5.000057E-01    9.986215E-01
    5.000204E-01    1.002455E+00
    5.000322E-01    1.006308E+00
    5.000395E-01    1.010181E+00
    5.000411E-01    1.014076E+00
    5.000368E-01    1.017996E+00
    5.000268E-01    1.021944E+00
    5.000125E-01    1.025921E+00
    4.999959E-01    1.029931E+00
    4.999797E-01    1.033973E+00
    4.999676E-01    1.038049E+00
    4.999631E-01    1.042156E+00
    4.999689E-01    1.046291E+00
    4.999860E-01    1.050450E+00
    5.000125E-01    1.054626E+00
    5.000437E-01    1.058817E+00
    5.000724E-01    1.063019E+00
    5.000912E-01    1.067236E+00
    5.000940E-01    1.071473E+00
    5.000785E-01    1.075739E+00
    5.000466E-01    1.080044E+00
    5.000046E-01    1.084395E+00
    4.999614E-01    1.088794E+00
    4.999268E-01    1.093241E+00
    4.999081E-01    1.097731E+00
    4.999092E-01    1.102253E+00
    4.999290E-01    1.106800E+00
    4.999620E-01    1.111363E+00
    4.999997E-01    1.115939E+00
    5.000329E-01    1.120528E+00
    5.000541E-01    1.125136E+00
    5.000592E-01    1.129772E+00
    5.000483E-01    1.134442E+00
    5.000255E-01    1.139155E+00
    4.999970E-01    1.143914E+00
    4.999696E-01    1.148720E+00
    4.999487E-01    1.153570E+00
    4.999372E-01    1.158461E+00
    4.999358E-01    1.163388E+00
    4.999432E-01    1.168347E+00
    4.999568E-01    1.173336E+00
    4.999739E-01    1.178355E+00
    4.999919E-01    1.183403E+00
    5.000085E-01    1.188481E+00
    5.000217E-01    1.193592E+00
    5.000298E-01    1.198736E+00
    5.000321E-01    1.203917E+00
    5.000282E-01    1.209138E+00
    5.000192E-01    1.214400E+00
    5.000068E-01    1.219707E+00
    4.999935E-01    1.225059E+00
    4.999814E-01    1.230457E+00
    4.999725E-01    1.235900E+00
    4.999677E-01    1.241387E+00
    4.999670E-01    1.246915E+00
    4.999700E-01    1.252486E+00
    4.999758E-01    1.258097E+00
    4.999836E-01    1.263749E+00
    4.999923E-01    1.269442E+00
    5.000011E-01    1.275177E+00
    5.000091E-01    1.280955E+00
    5.000153E-01    1.286775E+00
    5.000189E-01    1.292641E+00
    5.000195E-01    1.298553E+00
    5.000175E-01    1.304514E+00
    5.000135E-01    1.310525E+00
    5.000091E-01    1.316587E+00
    5.000054E-01    1.322701E+00
    5.000036E-01    1.328867E+00
    5.000042E-01    1.335084E+00
    5.000073E-01    1.341353E+00
    5.000125E-01    1.347672E+00
    5.000193E-01    1.354042E+00
    5.000272E-01    1.360463E+00
    5.000356E-01    1.366935E+00
    5.000438E-01    1.373460E+00
    5.000511E-01    1.380038E+00
    5.000566E-01    1.386669E+00
    5.000594E-01    1.393356E+00
    5.000593E-01    1.400099E+00
    5.000560E-01    1.406902E+00
    5.000502E-01    1.413765E+00
    5.000426E-01    1.420690E+00
    5.000342E-01    1.427679E+00
    5.000259E-01    1.434732E+00
    5.000183E-01    1.441849E+00
    5.000120E-01    1.449031E+00
    5.000071E-01    1.456278E+00
    5.000036E-01    1.463591E+00
    5.000015E-01    1.470970E+00
    5.000007E-01    1.478415E+00
    5.000009E-01    1.485927E+00
    5.000017E-01    1.493508E+00
    5.000025E-01    1.501156E+00
    5.000029E-01    1.508875E+00
    5.000023E-01    1.516664E+00
    5.000005E-01    1.524527E+00
    4.999975E-01    1.532463E+00
    4.999937E-01    1.540476E+00
    4.999894E-01    1.548565E+00
    4.999851E-01    1.556733E+00
    4.999811E-01    1.564981E+00
    4.999776E-01    1.573309E+00
    4.999749E-01    1.581718E+00
    4.999730E-01    1.590210E+00
    4.999720E-01    1.598784E+00
    4.999717E-01    1.607443E+00
    4.999717E-01    1.616187E+00
    4.999716E-01    1.625017E+00
    4.999706E-01    1.633935E+00
    4.999679E-01    1.642943E+00
    4.999634E-01    1.652043E+00
    4.999573E-01    1.661237E+00
    4.999507E-01    1.670530E+00
    4.999453E-01    1.679921E+00
    4.999429E-01    1.689414E+00
    4.999453E-01    1.699008E+00
    4.999536E-01    1.708702E+00
    4.999679E-01    1.718496E+00
    4.999869E-01    1.728388E+00
    5.000084E-01    1.738380E+00
    5.000298E-01    1.748471E+00
    5.000482E-01    1.758665E+00
    5.000615E-01    1.768964E+00
    5.000683E-01    1.779373E+00
    5.000683E-01    1.789896E+00
    5.000621E-01    1.800538E+00
    5.000510E-01    1.811302E+00
