 Vespa-Simulation Mixed Metabolite Output
 This file was generated by Vespa-Simulation. You can learn about and download Vespa here:
https://github.com/vespa-mrs/vespa/tree/main/vespa

 
 Output Path/Filename = /home/stud/casperc/bhome/Project1(DeepFit)/DeepFit-data-generation/DeepFitData_TE_20_lw10_2048p
 Output Loop Values = (1,1,1)  ( Loop 1 = 10, Loop 2 = 10, Loop3 Inactive )
 Output Comment
 ---------------------------------------------------------------------------
 
 
 Experiment Information
 ---------------------------------------------------------------------------
 --- Experiment 18b0168e-f5f0-4bd4-8d52-da93aba06c60 ---
 Name: SyntheticDataSetDeepFitTE20
 Public: False
 Created: 2024-10-08T09:55:07
 Comment (abbr.): 
 PI: Casper Cappelen
 b0: 127.740000
 Peak Search PPM low/high: -15.000000 / 15.000000
 Blend tol. PPM/phase: 0.001500 / 50.000000
 Pulse seq.: 43be13ae-de9a-40a1-9a2d-c872d8bjs100 (PRESS Ideal)
 0 User static parameters: 
 22 Metabolites: 2-hydroxyglutarate, GPC-pcholine2, NAAG-truncated, alanine, choline-trimethyl, creatine, ethanolamine, gaba, glucose-beta, glutamate, glutamine, glutathione-glutamate, glutathione-glycine-cysteine, glycine, lactate, myo-inositol, n-acetylaspartate, phosphocreatine, phosphorylcholine-trimethyl, phosphorylethanolamine, pyruvate, taurine
 22 Simulations: (not shown)
 
 Metabolite Formatting Information
 ---------------------------------------------------------------------------
 Name=2-hydroxyglutarate Abbr=2HG Scale=1.0 Shift=0.0 PPM Start=-3.1207465171441986 PPM End=12.528391440425866
 Name=GPC-pcholine2 Abbr=GPC Scale=1.0 Shift=0.0 PPM Start=-3.1207465171441986 PPM End=12.528391440425866
 Name=NAAG-truncated Abbr=NAAG Scale=1.0 Shift=0.0 PPM Start=-3.1207465171441986 PPM End=12.528391440425866
 Name=alanine Abbr=Ala Scale=1.0 Shift=0.0 PPM Start=-3.1207465171441986 PPM End=12.528391440425866
 Name=choline-trimethyl Abbr=Cho Scale=1.0 Shift=0.0 PPM Start=-3.1207465171441986 PPM End=12.528391440425866
 Name=creatine Abbr=Cr Scale=1.0 Shift=0.0 PPM Start=-3.1207465171441986 PPM End=12.528391440425866
 Name=ethanolamine Abbr=ETA Scale=1.0 Shift=0.0 PPM Start=-3.1207465171441986 PPM End=12.528391440425866
 Name=gaba Abbr=GABA Scale=1.0 Shift=0.0 PPM Start=-3.1207465171441986 PPM End=12.528391440425866
 Name=glucose-beta Abbr=Glc Scale=1.0 Shift=0.0 PPM Start=-3.1207465171441986 PPM End=12.528391440425866
 Name=glutamate Abbr=Glu Scale=1.0 Shift=0.0 PPM Start=-3.1207465171441986 PPM End=12.528391440425866
 Name=glutamine Abbr=Gln Scale=1.0 Shift=0.0 PPM Start=-3.1207465171441986 PPM End=12.528391440425866
 Name=glycine Abbr=Gly Scale=1.0 Shift=0.0 PPM Start=-3.1207465171441986 PPM End=12.528391440425866
 Name=lactate Abbr=Lac Scale=1.0 Shift=0.0 PPM Start=-3.1207465171441986 PPM End=12.528391440425866
 Name=myo-inositol Abbr=mI Scale=1.0 Shift=0.0 PPM Start=-3.1207465171441986 PPM End=12.528391440425866
 Name=n-acetylaspartate Abbr=NAA Scale=1.0 Shift=0.0 PPM Start=-3.1207465171441986 PPM End=12.528391440425866
 Name=phosphocreatine Abbr=PCr Scale=1.0 Shift=0.0 PPM Start=-3.1207465171441986 PPM End=12.528391440425866
 Name=phosphorylcholine-trimethyl Abbr=PCho Scale=1.0 Shift=0.0 PPM Start=-3.1207465171441986 PPM End=12.528391440425866
 Name=phosphorylethanolamine Abbr=PE Scale=1.0 Shift=0.0 PPM Start=-3.1207465171441986 PPM End=12.528391440425866
 Name=pyruvate Abbr=Pyr Scale=1.0 Shift=0.0 PPM Start=-3.1207465171441986 PPM End=12.528391440425866
 Name=taurine Abbr=Tau Scale=1.0 Shift=0.0 PPM Start=-3.1207465171441986 PPM End=12.528391440425866
 Name=glutathione-glutamate+glutathione-glycine-cysteine Abbr=GSH Scale=1.0 Shift=0.0 PPM Start=-3.1207565171441987 PPM End=12.528
   Mixture of [metab*scale] = glutathione-glutamate*1.000000 + glutathione-glycine-cysteine*1.000000
 
 ===========================================================================
 This LCModel format RAW file was created using the 
 Vespa-Simulation spectral simulation program using 
 the following settings and parameters 
 
 Sweep Width = 2000.0 Hz 
 Vector Size = 2048 points 
 Apodization = 10.0 Hz Gaussian broadening
 B0 Field    = 127.74 MHz 
 Ref Singlet = False
  
 $NMID ID='NAAG'
 FMTDAT='(2E16.6)'
 VOLUME=1.0
 TRAMP=1.0
 $END
    1.000000E+00    4.440892E-16
    4.829960E-01    8.755212E-01
   -5.331575E-01    8.455961E-01
   -9.974957E-01   -5.834993E-02
   -4.304698E-01   -9.010312E-01
    5.805429E-01   -8.115039E-01
    9.900088E-01    1.162216E-01
    3.760143E-01    9.219252E-01
   -6.247745E-01    7.735317E-01
   -9.776171E-01   -1.731410E-01
   -3.200838E-01   -9.380501E-01
    6.655005E-01   -7.320126E-01
    9.604477E-01    2.286538E-01
    2.631391E-01    9.493054E-01
   -7.024181E-01    6.873050E-01
   -9.386785E-01   -2.823101E-01
   -2.056564E-01   -9.556384E-01
    7.352578E-01   -6.398045E-01
    9.125314E-01    3.336948E-01
    1.481172E-01    9.570485E-01
   -7.637939E-01    5.899352E-01
   -8.822697E-01   -3.824207E-01
   -9.097478E-02   -9.535893E-01
    7.878620E-01   -5.381224E-01
    8.481987E-01    4.281265E-01
    3.469402E-02    9.453599E-01
   -8.073322E-01    4.848219E-01
   -8.106568E-01   -4.704916E-01
    2.028433E-02   -9.325090E-01
    8.221257E-01   -4.304980E-01
    7.700160E-01    5.092298E-01
   -7.353434E-02    9.152304E-01
   -8.322275E-01    3.755905E-01
   -7.266613E-01   -5.441167E-01
    1.246856E-01   -8.937572E-01
    8.376488E-01   -3.205802E-01
    6.810124E-01    5.749492E-01
   -1.733490E-01    8.683659E-01
   -8.384681E-01    2.658992E-01
   -6.334811E-01   -6.015987E-01
    2.192132E-01   -8.393616E-01
    8.348065E-01   -2.119638E-01
    5.845185E-01    6.239474E-01
   -2.620036E-01    8.070757E-01
   -8.268171E-01    1.592099E-01
   -5.345408E-01   -6.419649E-01
    3.014475E-01   -7.718750E-01
    8.147050E-01   -1.080086E-01
    4.839993E-01    6.556305E-01
   -3.373543E-01    7.341342E-01
   -7.987080E-01    5.870307E-02
   -4.333074E-01   -6.649960E-01
    3.695745E-01   -6.942385E-01
    7.790928E-01   -1.164181E-02
    3.828638E-01    6.701528E-01
   -3.979703E-01    6.525987E-01
   -7.561571E-01   -3.291206E-02
   -3.330804E-01   -6.712145E-01
    4.224816E-01   -6.096115E-01
    7.302211E-01    7.468433E-02
    2.843153E-01    6.683519E-01
   -4.430896E-01    5.656698E-01
   -7.016225E-01   -1.134765E-01
   -2.369004E-01   -6.617667E-01
    4.597982E-01   -5.211724E-01
    6.707123E-01    1.491182E-01
    1.911694E-01    6.516790E-01
   -4.726542E-01    4.765071E-01
   -6.378431E-01   -1.814998E-01
   -1.473922E-01   -6.383471E-01
    4.817584E-01   -4.320316E-01
    6.033880E-01    2.104913E-01
    1.058157E-01    6.220471E-01
   -4.872379E-01    3.880901E-01
   -5.677027E-01   -2.360645E-01
   -6.663177E-02   -6.030739E-01
    4.892507E-01   -3.450037E-01
    5.311421E-01    2.582086E-01
    3.005352E-02    5.817277E-01
   -4.879926E-01    3.030519E-01
   -4.940506E-01   -2.769492E-01
    3.800762E-03   -5.583253E-01
    4.836536E-01   -2.625320E-01
    4.567594E-01    2.923464E-01
   -3.482970E-02    5.331841E-01
   -4.764748E-01    2.236649E-01
   -4.195723E-01   -3.045050E-01
    6.296760E-02   -5.066209E-01
    4.667027E-01   -1.866551E-01
    3.828018E-01    3.135178E-01
   -8.819818E-02    4.789454E-01
   -4.545958E-01    1.516754E-01
   -3.467096E-01   -3.195447E-01
    1.104919E-01   -4.504665E-01
    4.404203E-01   -1.188656E-01
    3.115416E-01    3.227533E-01
   -1.298967E-01    4.214751E-01
   -4.244498E-01    8.832066E-02
   -2.775180E-01   -3.233297E-01
    1.464729E-01   -3.922497E-01
    4.069486E-01   -6.014433E-02
    2.448212E-01    3.214824E-01
   -1.603062E-01    3.630517E-01
   -3.881886E-01    3.436927E-02
   -2.136367E-01   -3.174075E-01
    1.715053E-01   -3.341234E-01
    3.684315E-01   -1.101324E-02
    1.840911E-01    3.113335E-01
   -1.802080E-01    3.056807E-01
   -3.479299E-01   -9.932838E-03
   -1.562938E-01   -3.034849E-01
    1.865394E-01   -2.779341E-01
    3.269239E-01    2.851303E-02
    1.303270E-01    2.940873E-01
   -1.906681E-01    2.510546E-01
   -3.056421E-01   -4.476242E-02
   -1.062471E-01   -2.833649E-01
    1.927634E-01   -2.251952E-01
    2.842955E-01    5.876814E-02
    8.407738E-02    2.715398E-01
   -1.930015E-01    2.004852E-01
   -2.630788E-01   -7.062384E-02
   -6.384387E-02   -2.588188E-01
    1.915692E-01   -1.770248E-01
    2.421681E-01    8.043791E-02
    4.552503E-02    2.454088E-01
   -1.886376E-01    1.549094E-01
   -2.217180E-01   -8.833778E-02
   -2.908171E-02   -2.315032E-01
    1.843912E-01   -1.342005E-01
    2.018750E-01    9.443275E-02
    1.448661E-02    2.172801E-01
   -1.790222E-01    1.149213E-01
   -1.827461E-01   -9.888639E-02
   -1.647380E-03   -2.029084E-01
    1.726953E-01   -9.710541E-02
    1.644367E-01    1.018267E-01
   -9.486619E-03    1.885395E-01
   -1.655738E-01    8.076681E-02
   -1.470343E-01   -1.033885E-01
    1.902762E-02   -1.743098E-01
    1.578282E-01   -6.587166E-02
    1.305890E-01    1.037359E-01
   -2.705911E-02    1.603409E-01
   -1.495993E-01    5.241298E-02
   -1.151596E-01   -1.029943E-01
    3.367456E-02   -1.467411E-01
    1.410340E-01   -4.033157E-02
    1.007630E-01    1.013184E-01
   -3.900035E-02    1.335970E-01
   -1.322566E-01    2.958643E-02
   -8.742746E-02   -9.882954E-02
    4.312865E-02   -1.209889E-01
    1.233824E-01   -2.012521E-02
    7.514198E-02    9.566812E-02
   -4.618610E-02    1.089728E-01
   -1.145186E-01    1.186430E-02
   -6.390288E-02   -9.194962E-02
    4.827444E-02   -9.759872E-02
    1.057553E-01   -4.745320E-03
    5.369494E-02    8.778453E-02
   -4.949644E-02    8.690456E-02
   -9.717385E-02   -1.323070E-03
   -4.447685E-02   -8.328540E-02
    4.996854E-02   -7.690691E-02
    8.884169E-02    6.413927E-03
    3.622159E-02    7.854231E-02
   -4.978123E-02    6.762401E-02
   -8.081669E-02   -1.060378E-02
   -2.887488E-02   -7.364735E-02
    4.903921E-02   -5.905169E-02
    7.314391E-02    1.398496E-02
    2.239279E-02    6.867563E-02
   -4.782461E-02    5.118982E-02
