 Vespa-Simulation Mixed Metabolite Output
 This file was generated by Vespa-Simulation. You can learn about and download Vespa here:
https://github.com/vespa-mrs/vespa/tree/main/vespa

 
 Output Path/Filename = /home/stud/casperc/bhome/Project1(DeepFit)/DeepFit-data-generation/DeepFitData_TE_20_lw10_2048p
 Output Loop Values = (1,1,1)  ( Loop 1 = 10, Loop 2 = 10, Loop3 Inactive )
 Output Comment
 ---------------------------------------------------------------------------
 
 
 Experiment Information
 ---------------------------------------------------------------------------
 --- Experiment 18b0168e-f5f0-4bd4-8d52-da93aba06c60 ---
 Name: SyntheticDataSetDeepFitTE20
 Public: False
 Created: 2024-10-08T09:55:07
 Comment (abbr.): 
 PI: Casper Cappelen
 b0: 127.740000
 Peak Search PPM low/high: -15.000000 / 15.000000
 Blend tol. PPM/phase: 0.001500 / 50.000000
 Pulse seq.: 43be13ae-de9a-40a1-9a2d-c872d8bjs100 (PRESS Ideal)
 0 User static parameters: 
 22 Metabolites: 2-hydroxyglutarate, GPC-pcholine2, NAAG-truncated, alanine, choline-trimethyl, creatine, ethanolamine, gaba, glucose-beta, glutamate, glutamine, glutathione-glutamate, glutathione-glycine-cysteine, glycine, lactate, myo-inositol, n-acetylaspartate, phosphocreatine, phosphorylcholine-trimethyl, phosphorylethanolamine, pyruvate, taurine
 22 Simulations: (not shown)
 
 Metabolite Formatting Information
 ---------------------------------------------------------------------------
 Name=2-hydroxyglutarate Abbr=2HG Scale=1.0 Shift=0.0 PPM Start=-3.1207465171441986 PPM End=12.528391440425866
 Name=GPC-pcholine2 Abbr=GPC Scale=1.0 Shift=0.0 PPM Start=-3.1207465171441986 PPM End=12.528391440425866
 Name=NAAG-truncated Abbr=NAAG Scale=1.0 Shift=0.0 PPM Start=-3.1207465171441986 PPM End=12.528391440425866
 Name=alanine Abbr=Ala Scale=1.0 Shift=0.0 PPM Start=-3.1207465171441986 PPM End=12.528391440425866
 Name=choline-trimethyl Abbr=Cho Scale=1.0 Shift=0.0 PPM Start=-3.1207465171441986 PPM End=12.528391440425866
 Name=creatine Abbr=Cr Scale=1.0 Shift=0.0 PPM Start=-3.1207465171441986 PPM End=12.528391440425866
 Name=ethanolamine Abbr=ETA Scale=1.0 Shift=0.0 PPM Start=-3.1207465171441986 PPM End=12.528391440425866
 Name=gaba Abbr=GABA Scale=1.0 Shift=0.0 PPM Start=-3.1207465171441986 PPM End=12.528391440425866
 Name=glucose-beta Abbr=Glc Scale=1.0 Shift=0.0 PPM Start=-3.1207465171441986 PPM End=12.528391440425866
 Name=glutamate Abbr=Glu Scale=1.0 Shift=0.0 PPM Start=-3.1207465171441986 PPM End=12.528391440425866
 Name=glutamine Abbr=Gln Scale=1.0 Shift=0.0 PPM Start=-3.1207465171441986 PPM End=12.528391440425866
 Name=glycine Abbr=Gly Scale=1.0 Shift=0.0 PPM Start=-3.1207465171441986 PPM End=12.528391440425866
 Name=lactate Abbr=Lac Scale=1.0 Shift=0.0 PPM Start=-3.1207465171441986 PPM End=12.528391440425866
 Name=myo-inositol Abbr=mI Scale=1.0 Shift=0.0 PPM Start=-3.1207465171441986 PPM End=12.528391440425866
 Name=n-acetylaspartate Abbr=NAA Scale=1.0 Shift=0.0 PPM Start=-3.1207465171441986 PPM End=12.528391440425866
 Name=phosphocreatine Abbr=PCr Scale=1.0 Shift=0.0 PPM Start=-3.1207465171441986 PPM End=12.528391440425866
 Name=phosphorylcholine-trimethyl Abbr=PCho Scale=1.0 Shift=0.0 PPM Start=-3.1207465171441986 PPM End=12.528391440425866
 Name=phosphorylethanolamine Abbr=PE Scale=1.0 Shift=0.0 PPM Start=-3.1207465171441986 PPM End=12.528391440425866
 Name=pyruvate Abbr=Pyr Scale=1.0 Shift=0.0 PPM Start=-3.1207465171441986 PPM End=12.528391440425866
 Name=taurine Abbr=Tau Scale=1.0 Shift=0.0 PPM Start=-3.1207465171441986 PPM End=12.528391440425866
 Name=glutathione-glutamate+glutathione-glycine-cysteine Abbr=GSH Scale=1.0 Shift=0.0 PPM Start=-3.1207565171441987 PPM End=12.528
   Mixture of [metab*scale] = glutathione-glutamate*1.000000 + glutathione-glycine-cysteine*1.000000
 
 ===========================================================================
 This LCModel format RAW file was created using the 
 Vespa-Simulation spectral simulation program using 
 the following settings and parameters 
 
 Sweep Width = 2000.0 Hz 
 Vector Size = 2048 points 
 Apodization = 10.0 Hz Gaussian broadening
 B0 Field    = 127.74 MHz 
 Ref Singlet = False
  
 This data has been FFTd to be in the FREQUENCY domain
 
 $NMID ID='PCho'
 FMTDAT='(2E16.6)'
 VOLUME=1.0
 TRAMP=1.0
 $END
    4.499774E+00    1.458689E+01
    4.499770E+00    1.466677E+01
    4.499755E+00    1.474744E+01
    4.499726E+00    1.482894E+01
    4.499683E+00    1.491128E+01
    4.499632E+00    1.499448E+01
    4.499582E+00    1.507857E+01
    4.499549E+00    1.516355E+01
    4.499548E+00    1.524944E+01
    4.499592E+00    1.533624E+01
    4.499683E+00    1.542394E+01
    4.499819E+00    1.551254E+01
    4.499984E+00    1.560203E+01
    4.500158E+00    1.569242E+01
    4.500319E+00    1.578372E+01
    4.500447E+00    1.587597E+01
    4.500526E+00    1.596919E+01
    4.500552E+00    1.606342E+01
    4.500526E+00    1.615870E+01
    4.500455E+00    1.625506E+01
    4.500349E+00    1.635253E+01
    4.500223E+00    1.645113E+01
    4.500089E+00    1.655089E+01
    4.499960E+00    1.665182E+01
    4.499845E+00    1.675394E+01
    4.499752E+00    1.685726E+01
    4.499688E+00    1.696179E+01
    4.499654E+00    1.706754E+01
    4.499646E+00    1.717453E+01
    4.499660E+00    1.728276E+01
    4.499690E+00    1.739227E+01
    4.499727E+00    1.750306E+01
    4.499766E+00    1.761517E+01
    4.499801E+00    1.772863E+01
    4.499831E+00    1.784345E+01
    4.499851E+00    1.795968E+01
    4.499863E+00    1.807733E+01
    4.499867E+00    1.819645E+01
    4.499863E+00    1.831707E+01
    4.499857E+00    1.843921E+01
    4.499852E+00    1.856291E+01
    4.499854E+00    1.868819E+01
    4.499866E+00    1.881509E+01
    4.499891E+00    1.894363E+01
    4.499928E+00    1.907383E+01
    4.499973E+00    1.920573E+01
    4.500021E+00    1.933936E+01
    4.500068E+00    1.947475E+01
    4.500108E+00    1.961194E+01
    4.500139E+00    1.975097E+01
    4.500158E+00    1.989189E+01
    4.500165E+00    2.003473E+01
    4.500158E+00    2.017954E+01
    4.500139E+00    2.032637E+01
    4.500110E+00    2.047526E+01
    4.500074E+00    2.062626E+01
    4.500036E+00    2.077941E+01
    4.500004E+00    2.093478E+01
    4.499981E+00    2.109239E+01
    4.499972E+00    2.125229E+01
    4.499977E+00    2.141453E+01
    4.499994E+00    2.157916E+01
    4.500019E+00    2.174622E+01
    4.500048E+00    2.191578E+01
    4.500077E+00    2.208788E+01
    4.500102E+00    2.226258E+01
    4.500122E+00    2.243996E+01
    4.500134E+00    2.262008E+01
    4.500136E+00    2.280300E+01
    4.500127E+00    2.298879E+01
    4.500110E+00    2.317753E+01
    4.500086E+00    2.336930E+01
    4.500059E+00    2.356416E+01
    4.500037E+00    2.376220E+01
    4.500022E+00    2.396349E+01
    4.500019E+00    2.416811E+01
    4.500027E+00    2.437614E+01
    4.500047E+00    2.458765E+01
    4.500072E+00    2.480274E+01
    4.500100E+00    2.502150E+01
    4.500125E+00    2.524402E+01
    4.500142E+00    2.547040E+01
    4.500149E+00    2.570076E+01
    4.500142E+00    2.593520E+01
    4.500121E+00    2.617383E+01
    4.500085E+00    2.641678E+01
    4.500038E+00    2.666417E+01
    4.499985E+00    2.691614E+01
    4.499932E+00    2.717280E+01
    4.499889E+00    2.743431E+01
    4.499863E+00    2.770077E+01
    4.499858E+00    2.797234E+01
    4.499875E+00    2.824915E+01
    4.499907E+00    2.853135E+01
    4.499946E+00    2.881909E+01
    4.499982E+00    2.911254E+01
    4.500005E+00    2.941188E+01
    4.500008E+00    2.971730E+01
    4.499991E+00    3.002900E+01
    4.499959E+00    3.034719E+01
    4.499921E+00    3.067208E+01
    4.499888E+00    3.100388E+01
    4.499869E+00    3.134282E+01
    4.499871E+00    3.168912E+01
    4.499895E+00    3.204301E+01
    4.499933E+00    3.240474E+01
    4.499977E+00    3.277456E+01
    4.500017E+00    3.315277E+01
    4.500043E+00    3.353965E+01
    4.500052E+00    3.393552E+01
    4.500044E+00    3.434071E+01
    4.500023E+00    3.475556E+01
    4.499998E+00    3.518043E+01
    4.499975E+00    3.561568E+01
    4.499959E+00    3.606171E+01
    4.499953E+00    3.651890E+01
    4.499956E+00    3.698769E+01
    4.499966E+00    3.746853E+01
    4.499978E+00    3.796187E+01
    4.499989E+00    3.846823E+01
    4.499995E+00    3.898814E+01
    4.499994E+00    3.952214E+01
    4.499986E+00    4.007084E+01
    4.499971E+00    4.063485E+01
    4.499953E+00    4.121483E+01
    4.499934E+00    4.181148E+01
    4.499916E+00    4.242553E+01
    4.499903E+00    4.305775E+01
    4.499896E+00    4.370898E+01
    4.499897E+00    4.438008E+01
    4.499905E+00    4.507198E+01
    4.499920E+00    4.578568E+01
    4.499941E+00    4.652222E+01
    4.499965E+00    4.728273E+01
    4.499990E+00    4.806841E+01
    4.500013E+00    4.888054E+01
    4.500032E+00    4.972049E+01
    4.500045E+00    5.058973E+01
    4.500051E+00    5.148985E+01
    4.500051E+00    5.242253E+01
    4.500047E+00    5.338958E+01
    4.500042E+00    5.439298E+01
    4.500037E+00    5.543482E+01
    4.500035E+00    5.651737E+01
    4.500036E+00    5.764310E+01
    4.500040E+00    5.881466E+01
    4.500045E+00    6.003494E+01
    4.500053E+00    6.130708E+01
    4.500061E+00    6.263449E+01
    4.500069E+00    6.402090E+01
    4.500076E+00    6.547038E+01
    4.500078E+00    6.698740E+01
    4.500072E+00    6.857684E+01
    4.500059E+00    7.024410E+01
    4.500037E+00    7.199513E+01
    4.500009E+00    7.383650E+01
    4.499980E+00    7.577550E+01
    4.499952E+00    7.782024E+01
    4.499928E+00    7.997976E+01
    4.499910E+00    8.226419E+01
    4.499898E+00    8.468491E+01
    4.499894E+00    8.725475E+01
    4.499897E+00    8.998825E+01
    4.499908E+00    9.290195E+01
    4.499926E+00    9.601475E+01
    4.499951E+00    9.934840E+01
    4.499979E+00    1.029280E+02
    4.500007E+00    1.067828E+02
    4.500032E+00    1.109471E+02
    4.500056E+00    1.154614E+02
    4.500096E+00    1.203740E+02
    4.500214E+00    1.257431E+02
    4.500615E+00    1.316399E+02
