 Vespa-Simulation Mixed Metabolite Output
 This file was generated by Vespa-Simulation. You can learn about and download Vespa here:
https://github.com/vespa-mrs/vespa/tree/main/vespa

 
 Output Path/Filename = /home/stud/casperc/bhome/Project1(DeepFit)/DeepFit-data-generation/DeepFitData_TE_20_lw10_2048p
 Output Loop Values = (1,1,1)  ( Loop 1 = 10, Loop 2 = 10, Loop3 Inactive )
 Output Comment
 ---------------------------------------------------------------------------
 
 
 Experiment Information
 ---------------------------------------------------------------------------
 --- Experiment 18b0168e-f5f0-4bd4-8d52-da93aba06c60 ---
 Name: SyntheticDataSetDeepFitTE20
 Public: False
 Created: 2024-10-08T09:55:07
 Comment (abbr.): 
 PI: Casper Cappelen
 b0: 127.740000
 Peak Search PPM low/high: -15.000000 / 15.000000
 Blend tol. PPM/phase: 0.001500 / 50.000000
 Pulse seq.: 43be13ae-de9a-40a1-9a2d-c872d8bjs100 (PRESS Ideal)
 0 User static parameters: 
 22 Metabolites: 2-hydroxyglutarate, GPC-pcholine2, NAAG-truncated, alanine, choline-trimethyl, creatine, ethanolamine, gaba, glucose-beta, glutamate, glutamine, glutathione-glutamate, glutathione-glycine-cysteine, glycine, lactate, myo-inositol, n-acetylaspartate, phosphocreatine, phosphorylcholine-trimethyl, phosphorylethanolamine, pyruvate, taurine
 22 Simulations: (not shown)
 
 Metabolite Formatting Information
 ---------------------------------------------------------------------------
 Name=2-hydroxyglutarate Abbr=2HG Scale=1.0 Shift=0.0 PPM Start=-3.1207465171441986 PPM End=12.528391440425866
 Name=GPC-pcholine2 Abbr=GPC Scale=1.0 Shift=0.0 PPM Start=-3.1207465171441986 PPM End=12.528391440425866
 Name=NAAG-truncated Abbr=NAAG Scale=1.0 Shift=0.0 PPM Start=-3.1207465171441986 PPM End=12.528391440425866
 Name=alanine Abbr=Ala Scale=1.0 Shift=0.0 PPM Start=-3.1207465171441986 PPM End=12.528391440425866
 Name=choline-trimethyl Abbr=Cho Scale=1.0 Shift=0.0 PPM Start=-3.1207465171441986 PPM End=12.528391440425866
 Name=creatine Abbr=Cr Scale=1.0 Shift=0.0 PPM Start=-3.1207465171441986 PPM End=12.528391440425866
 Name=ethanolamine Abbr=ETA Scale=1.0 Shift=0.0 PPM Start=-3.1207465171441986 PPM End=12.528391440425866
 Name=gaba Abbr=GABA Scale=1.0 Shift=0.0 PPM Start=-3.1207465171441986 PPM End=12.528391440425866
 Name=glucose-beta Abbr=Glc Scale=1.0 Shift=0.0 PPM Start=-3.1207465171441986 PPM End=12.528391440425866
 Name=glutamate Abbr=Glu Scale=1.0 Shift=0.0 PPM Start=-3.1207465171441986 PPM End=12.528391440425866
 Name=glutamine Abbr=Gln Scale=1.0 Shift=0.0 PPM Start=-3.1207465171441986 PPM End=12.528391440425866
 Name=glycine Abbr=Gly Scale=1.0 Shift=0.0 PPM Start=-3.1207465171441986 PPM End=12.528391440425866
 Name=lactate Abbr=Lac Scale=1.0 Shift=0.0 PPM Start=-3.1207465171441986 PPM End=12.528391440425866
 Name=myo-inositol Abbr=mI Scale=1.0 Shift=0.0 PPM Start=-3.1207465171441986 PPM End=12.528391440425866
 Name=n-acetylaspartate Abbr=NAA Scale=1.0 Shift=0.0 PPM Start=-3.1207465171441986 PPM End=12.528391440425866
 Name=phosphocreatine Abbr=PCr Scale=1.0 Shift=0.0 PPM Start=-3.1207465171441986 PPM End=12.528391440425866
 Name=phosphorylcholine-trimethyl Abbr=PCho Scale=1.0 Shift=0.0 PPM Start=-3.1207465171441986 PPM End=12.528391440425866
 Name=phosphorylethanolamine Abbr=PE Scale=1.0 Shift=0.0 PPM Start=-3.1207465171441986 PPM End=12.528391440425866
 Name=pyruvate Abbr=Pyr Scale=1.0 Shift=0.0 PPM Start=-3.1207465171441986 PPM End=12.528391440425866
 Name=taurine Abbr=Tau Scale=1.0 Shift=0.0 PPM Start=-3.1207465171441986 PPM End=12.528391440425866
 Name=glutathione-glutamate+glutathione-glycine-cysteine Abbr=GSH Scale=1.0 Shift=0.0 PPM Start=-3.1207565171441987 PPM End=12.528
   Mixture of [metab*scale] = glutathione-glutamate*1.000000 + glutathione-glycine-cysteine*1.000000
 
 ===========================================================================
 This LCModel format RAW file was created using the 
 Vespa-Simulation spectral simulation program using 
 the following settings and parameters 
 
 Sweep Width = 2000.0 Hz 
 Vector Size = 2048 points 
 Apodization = 10.0 Hz Gaussian broadening
 B0 Field    = 127.74 MHz 
 Ref Singlet = False
  
 $NMID ID='PCho'
 FMTDAT='(2E16.6)'
 VOLUME=1.0
 TRAMP=1.0
 $END
    9.000000E+00    1.561251E-16
    7.433705E+00    5.072045E+00
    3.281010E+00    8.377198E+00
   -2.010333E+00    8.765224E+00
   -6.596690E+00    6.103587E+00
   -8.882075E+00    1.322800E+00
   -8.074603E+00   -3.909527E+00
   -4.461342E+00   -7.771383E+00
    6.938631E-01   -8.922041E+00
    5.593242E+00   -6.968386E+00
    8.533290E+00   -2.599365E+00
    8.498005E+00    2.657313E+00
    5.510734E+00    6.970362E+00
    6.221334E-01    8.844049E+00
   -4.459987E+00    7.637843E+00
   -7.968334E+00    3.785732E+00
   -8.691874E+00   -1.360153E+00
   -6.394470E+00   -6.004749E+00
   -1.891917E+00   -8.537563E+00
    3.238403E+00   -8.092037E+00
    7.210789E+00   -4.842345E+00
    8.654028E+00    6.387376E-02
    7.085462E+00    4.911472E+00
    3.072412E+00    8.018402E+00
   -1.973069E+00    8.320360E+00
   -6.291836E+00    5.735891E+00
   -8.392018E+00    1.186542E+00
   -7.565195E+00   -3.732090E+00
   -4.125505E+00   -7.310879E+00
    7.090012E-01   -8.322024E+00
    5.248469E+00   -6.440883E+00
    7.922556E+00   -2.349569E+00
    7.824666E+00    2.510368E+00
    5.019599E+00    6.446370E+00
    5.100450E-01    8.105682E+00
   -4.121745E+00    6.940448E+00
   -7.270420E+00    3.388642E+00
   -7.864365E+00   -1.290195E+00
   -5.730848E+00   -5.461649E+00
   -1.644327E+00   -7.688755E+00
    2.954330E+00   -7.227109E+00
    6.467007E+00   -4.273885E+00
    7.693884E+00    1.135804E-01
    6.244090E+00    4.396900E+00
    2.659150E+00    7.096185E+00
   -1.788776E+00    7.302490E+00
   -5.548299E+00    4.983569E+00
   -7.331095E+00    9.814574E-01
   -6.553383E+00   -3.293300E+00
   -3.526745E+00   -6.358907E+00
    6.648932E-01   -7.177029E+00
    4.553209E+00   -5.504204E+00
    6.800871E+00   -1.962371E+00
    6.661403E+00    2.191466E+00
    4.227048E+00    5.512070E+00
    3.813870E-01    6.868773E+00
   -3.521423E+00    5.831036E+00
   -6.133381E+00    2.803717E+00
   -6.579084E+00   -1.129216E+00
   -4.748511E+00   -4.592874E+00
   -1.319887E+00   -6.402171E+00
    2.491176E+00   -5.967848E+00
    5.362423E+00   -3.487356E+00
    6.324475E+00    1.401037E-01
    5.087565E+00    3.639027E+00
    2.127147E+00    5.806430E+00
   -1.497967E+00    5.925860E+00
   -4.523532E+00    4.003124E+00
   -5.921395E+00    7.481626E-01
   -5.248777E+00   -2.686349E+00
   -2.786986E+00   -5.113790E+00
    5.728459E-01   -5.722843E+00
    3.651876E+00   -4.348921E+00
    5.397736E+00   -1.514476E+00
    5.243396E+00    1.768004E+00
    3.290914E+00    4.357644E+00
    2.590283E-01    5.381710E+00
   -2.781199E+00    4.529503E+00
   -4.783954E+00    2.144277E+00
   -5.088806E+00   -9.122539E-01
   -3.637737E+00   -3.570799E+00
   -9.782509E-01   -4.928904E+00
    1.941625E+00   -4.556363E+00
    4.111124E+00   -2.630666E+00
    4.806789E+00    1.419507E-01
    3.832609E+00    2.784330E+00
    1.572512E+00    4.392847E+00
   -1.158858E+00    4.446128E+00
   -3.409754E+00    2.972937E+00
   -4.422103E+00    5.256308E-01
   -3.886779E+00   -2.025715E+00
   -2.036004E+00   -3.802285E+00
    4.537815E-01   -4.219207E+00
    2.707988E+00   -3.176824E+00
    3.961033E+00   -1.079929E+00
    3.816019E+00    1.318127E+00
    2.368721E+00    3.185094E+00
    1.587332E-01    3.898642E+00
   -2.030649E+00    3.253105E+00
   -3.449992E+00    1.515915E+00
   -3.639312E+00   -6.801426E-01
   -2.576451E+00   -2.566761E+00
   -6.694913E-01   -3.508512E+00
    1.398728E+00   -3.216390E+00
    2.914133E+00   -1.834466E+00
    3.377826E+00    1.246863E-01
    2.669429E+00    1.969533E+00
    1.074462E+00    3.072751E+00
   -8.283378E-01    3.084319E+00
   -2.376305E+00    2.041235E+00
   -3.053409E+00    3.401284E-01
   -2.661173E+00   -1.412002E+00
   -1.374892E+00   -2.613952E+00
    3.307966E-01   -2.876081E+00
    1.856445E+00   -2.145603E+00
    2.687562E+00   -7.114042E-01
    2.567776E+00    9.082076E-01
    1.576233E+00    2.152442E+00
    8.703778E-02    2.611304E+00
   -1.370716E+00    2.160132E+00
   -2.300363E+00    9.905997E-01
   -2.406432E+00   -4.681222E-01
   -1.687146E+00   -1.705772E+00
   -4.229374E-01   -2.309130E+00
    9.313826E-01   -2.099260E+00
    1.909822E+00   -1.182673E+00
    2.194676E+00    9.728342E-02
    1.718984E+00    1.288042E+00
    6.784386E-01    1.987290E+00
   -5.469133E-01    1.978304E+00
   -1.531142E+00    1.295746E+00
   -1.949362E+00    2.026045E-01
   -1.684617E+00   -9.098291E-01
   -8.583164E-01   -1.661457E+00
    2.220941E-01   -1.812681E+00
    1.176661E+00   -1.339766E+00
    1.686002E+00   -4.329612E-01
    1.597543E+00    5.783301E-01
    9.696933E-01    1.344867E+00
    4.196683E-02    1.617161E+00
   -8.553307E-01    1.326210E+00
   -1.418165E+00    5.982974E-01
   -1.471215E+00   -2.975127E-01
   -1.021406E+00   -1.048086E+00
   -2.467101E-01   -1.405143E+00
    5.732637E-01   -1.266808E+00
    1.157228E+00   -7.048711E-01
    1.318426E+00    6.818603E-02
    1.023464E+00    7.787353E-01
    3.959260E-01    1.188338E+00
   -3.337353E-01    1.173185E+00
   -9.121443E-01    7.604412E-01
   -1.150671E+00    1.110236E-01
   -9.859933E-01   -5.419448E-01
   -4.953240E-01   -9.763961E-01
    1.373357E-01   -1.056317E+00
    6.894895E-01   -7.734861E-01
    9.779224E-01   -2.434561E-01
    9.189402E-01    3.404105E-01
    5.515115E-01    7.769032E-01
    1.719868E-02    9.259779E-01
   -4.934185E-01    7.528110E-01
   -8.083504E-01    3.340281E-01
   -8.316326E-01   -1.745674E-01
   -5.717198E-01   -5.953740E-01
   -1.327616E-01   -7.905866E-01
    3.261498E-01   -7.068091E-01
    6.483179E-01   -3.883674E-01
    7.323059E-01    4.328963E-02
    5.633926E-01    4.352719E-01
    2.135287E-01    6.570032E-01
   -1.881299E-01    6.432741E-01
   -5.024192E-01    4.125713E-01
   -6.280027E-01    5.592287E-02
