 Vespa-Simulation Mixed Metabolite Output
 This file was generated by Vespa-Simulation. You can learn about and download Vespa here:
https://github.com/vespa-mrs/vespa/tree/main/vespa

 
 Output Path/Filename = /home/stud/casperc/bhome/Project1(DeepFit)/DeepFit-data-generation/DeepFitData_TE_20_lw10_2048p
 Output Loop Values = (1,1,1)  ( Loop 1 = 10, Loop 2 = 10, Loop3 Inactive )
 Output Comment
 ---------------------------------------------------------------------------
 
 
 Experiment Information
 ---------------------------------------------------------------------------
 --- Experiment 18b0168e-f5f0-4bd4-8d52-da93aba06c60 ---
 Name: SyntheticDataSetDeepFitTE20
 Public: False
 Created: 2024-10-08T09:55:07
 Comment (abbr.): 
 PI: Casper Cappelen
 b0: 127.740000
 Peak Search PPM low/high: -15.000000 / 15.000000
 Blend tol. PPM/phase: 0.001500 / 50.000000
 Pulse seq.: 43be13ae-de9a-40a1-9a2d-c872d8bjs100 (PRESS Ideal)
 0 User static parameters: 
 22 Metabolites: 2-hydroxyglutarate, GPC-pcholine2, NAAG-truncated, alanine, choline-trimethyl, creatine, ethanolamine, gaba, glucose-beta, glutamate, glutamine, glutathione-glutamate, glutathione-glycine-cysteine, glycine, lactate, myo-inositol, n-acetylaspartate, phosphocreatine, phosphorylcholine-trimethyl, phosphorylethanolamine, pyruvate, taurine
 22 Simulations: (not shown)
 
 Metabolite Formatting Information
 ---------------------------------------------------------------------------
 Name=2-hydroxyglutarate Abbr=2HG Scale=1.0 Shift=0.0 PPM Start=-3.1207465171441986 PPM End=12.528391440425866
 Name=GPC-pcholine2 Abbr=GPC Scale=1.0 Shift=0.0 PPM Start=-3.1207465171441986 PPM End=12.528391440425866
 Name=NAAG-truncated Abbr=NAAG Scale=1.0 Shift=0.0 PPM Start=-3.1207465171441986 PPM End=12.528391440425866
 Name=alanine Abbr=Ala Scale=1.0 Shift=0.0 PPM Start=-3.1207465171441986 PPM End=12.528391440425866
 Name=choline-trimethyl Abbr=Cho Scale=1.0 Shift=0.0 PPM Start=-3.1207465171441986 PPM End=12.528391440425866
 Name=creatine Abbr=Cr Scale=1.0 Shift=0.0 PPM Start=-3.1207465171441986 PPM End=12.528391440425866
 Name=ethanolamine Abbr=ETA Scale=1.0 Shift=0.0 PPM Start=-3.1207465171441986 PPM End=12.528391440425866
 Name=gaba Abbr=GABA Scale=1.0 Shift=0.0 PPM Start=-3.1207465171441986 PPM End=12.528391440425866
 Name=glucose-beta Abbr=Glc Scale=1.0 Shift=0.0 PPM Start=-3.1207465171441986 PPM End=12.528391440425866
 Name=glutamate Abbr=Glu Scale=1.0 Shift=0.0 PPM Start=-3.1207465171441986 PPM End=12.528391440425866
 Name=glutamine Abbr=Gln Scale=1.0 Shift=0.0 PPM Start=-3.1207465171441986 PPM End=12.528391440425866
 Name=glycine Abbr=Gly Scale=1.0 Shift=0.0 PPM Start=-3.1207465171441986 PPM End=12.528391440425866
 Name=lactate Abbr=Lac Scale=1.0 Shift=0.0 PPM Start=-3.1207465171441986 PPM End=12.528391440425866
 Name=myo-inositol Abbr=mI Scale=1.0 Shift=0.0 PPM Start=-3.1207465171441986 PPM End=12.528391440425866
 Name=n-acetylaspartate Abbr=NAA Scale=1.0 Shift=0.0 PPM Start=-3.1207465171441986 PPM End=12.528391440425866
 Name=phosphocreatine Abbr=PCr Scale=1.0 Shift=0.0 PPM Start=-3.1207465171441986 PPM End=12.528391440425866
 Name=phosphorylcholine-trimethyl Abbr=PCho Scale=1.0 Shift=0.0 PPM Start=-3.1207465171441986 PPM End=12.528391440425866
 Name=phosphorylethanolamine Abbr=PE Scale=1.0 Shift=0.0 PPM Start=-3.1207465171441986 PPM End=12.528391440425866
 Name=pyruvate Abbr=Pyr Scale=1.0 Shift=0.0 PPM Start=-3.1207465171441986 PPM End=12.528391440425866
 Name=taurine Abbr=Tau Scale=1.0 Shift=0.0 PPM Start=-3.1207465171441986 PPM End=12.528391440425866
 Name=glutathione-glutamate+glutathione-glycine-cysteine Abbr=GSH Scale=1.0 Shift=0.0 PPM Start=-3.1207565171441987 PPM End=12.528
   Mixture of [metab*scale] = glutathione-glutamate*1.000000 + glutathione-glycine-cysteine*1.000000
 
 ===========================================================================
 This LCModel format RAW file was created using the 
 Vespa-Simulation spectral simulation program using 
 the following settings and parameters 
 
 Sweep Width = 2000.0 Hz 
 Vector Size = 2048 points 
 Apodization = 10.0 Hz Gaussian broadening
 B0 Field    = 127.74 MHz 
 Ref Singlet = False
  
 $NMID ID='PCr'
 FMTDAT='(2E16.6)'
 VOLUME=1.0
 TRAMP=1.0
 $END
    7.000000E+00    1.634841E-16
    5.488203E+00    9.239782E-01
    1.882670E+00    2.209788E+00
   -1.717913E+00    3.524834E+00
   -3.538164E+00    3.946361E+00
   -3.204628E+00    2.834305E+00
   -1.643446E+00    6.181418E-01
   -9.753473E-02   -1.339748E+00
    7.566853E-01   -1.777644E+00
    9.039862E-01   -5.638412E-01
    4.889220E-01    1.206818E+00
   -5.362618E-01    2.125629E+00
   -2.170832E+00    1.557378E+00
   -3.869260E+00   -3.617967E-02
   -4.519887E+00   -1.704277E+00
   -3.182439E+00   -2.847680E+00
   -1.948455E-02   -3.471975E+00
    3.501944E+00   -3.730573E+00
    5.498057E+00   -3.403910E+00
    5.006208E+00   -2.003454E+00
    2.660797E+00    5.311396E-01
    1.338072E-01    3.302843E+00
   -1.162497E+00    4.806256E+00
   -1.000927E+00    4.033636E+00
   -1.866588E-01    1.406324E+00
    3.721401E-01   -1.363543E+00
    4.222205E-01   -2.471304E+00
    2.977775E-01   -1.322006E+00
    2.600350E-01    1.121796E+00
    5.127626E-02    3.169313E+00
   -8.196583E-01    3.638856E+00
   -2.367044E+00    2.486700E+00
   -3.796454E+00    4.736257E-01
   -4.005779E+00   -1.602849E+00
   -2.526432E+00   -3.323623E+00
   -2.234978E-02   -4.458038E+00
    2.161634E+00   -4.627414E+00
    3.024096E+00   -3.405314E+00
    2.592402E+00   -8.723069E-01
    1.693066E+00    1.992512E+00
    1.099226E+00    3.684711E+00
    9.026178E-01    3.204702E+00
    6.702258E-01    9.150983E-01
    1.285981E-01   -1.584155E+00
   -4.008797E-01   -2.566514E+00
   -3.066752E-01   -1.409089E+00
    5.710617E-01    1.043373E+00
    1.555342E+00    3.218931E+00
    1.580610E+00    3.976756E+00
    1.315235E-01    3.229070E+00
   -2.189889E+00    1.655392E+00
   -4.025726E+00   -3.238223E-02
   -4.269975E+00   -1.521887E+00
   -2.858409E+00   -2.732028E+00
   -6.996734E-01   -3.426339E+00
    1.105255E+00   -3.182087E+00
    2.014031E+00   -1.833422E+00
    2.156817E+00    9.422490E-02
    1.883306E+00    1.527393E+00
    1.330418E+00    1.588747E+00
    4.686811E-01    3.283005E-01
   -5.128687E-01   -1.245440E+00
   -1.034062E+00   -1.922087E+00
   -5.006436E-01   -1.206097E+00
    1.053667E+00    3.806835E-01
    2.721770E+00    1.823100E+00
    3.244832E+00    2.442900E+00
    1.960330E+00    2.293555E+00
   -6.147008E-01    1.852682E+00
   -3.090641E+00    1.420987E+00
   -4.173329E+00    8.637743E-01
   -3.508831E+00   -7.998373E-02
   -1.766488E+00   -1.305247E+00
   -9.647775E-04   -2.235707E+00
    1.087749E+00   -2.268108E+00
    1.409987E+00   -1.351530E+00
    1.208975E+00   -1.203732E-01
    6.859123E-01    5.829233E-01
   -6.035538E-02    3.756167E-01
   -8.090439E-01   -4.050507E-01
   -1.098089E+00   -1.056984E+00
   -4.881388E-01   -1.119931E+00
    9.684925E-01   -6.711159E-01
    2.542127E+00   -9.332176E-02
    3.218771E+00    3.780597E-01
    2.430641E+00    8.383858E-01
    5.228655E-01    1.460541E+00
   -1.461769E+00    2.116210E+00
   -2.520300E+00    2.326718E+00
   -2.346992E+00    1.660255E+00
   -1.406197E+00    2.147499E-01
   -4.416268E-01   -1.305468E+00
    9.462388E-02   -2.054047E+00
    2.216418E-01   -1.675621E+00
    1.733476E-01   -5.659692E-01
    6.316848E-02    4.559199E-01
   -1.715737E-01    7.654448E-01
   -5.411915E-01    3.199367E-01
   -8.098092E-01   -4.526801E-01
   -6.124223E-01   -1.074840E+00
    1.897734E-01   -1.333082E+00
    1.273731E+00   -1.254737E+00
    2.015746E+00   -8.884805E-01
    1.951510E+00   -2.007810E-01
    1.137612E+00    7.817186E-01
    9.332622E-02    1.774243E+00
   -6.201674E-01    2.272881E+00
   -8.039209E-01    1.892415E+00
   -6.704045E-01    7.320259E-01
   -5.452554E-01   -5.907505E-01
   -5.426945E-01   -1.329276E+00
   -5.217470E-01   -1.130463E+00
   -3.250052E-01   -2.677396E-01
   -1.897870E-02    5.970460E-01
    1.295917E-01    9.078340E-01
   -7.597419E-02    5.592130E-01
   -5.225206E-01   -1.437435E-01
   -8.323168E-01   -7.981985E-01
   -6.704153E-01   -1.176623E+00
   -3.588435E-02   -1.256601E+00
    7.279221E-01   -1.075090E+00
    1.206007E+00   -6.283383E-01
    1.215192E+00    6.161886E-02
    8.809399E-01    8.162235E-01
    4.589304E-01    1.304721E+00
    1.054971E-01    1.248685E+00
   -1.842729E-01    6.658915E-01
   -4.505443E-01   -8.505644E-02
   -6.303591E-01   -5.373606E-01
   -5.812231E-01   -4.506955E-01
   -2.521985E-01    2.837369E-02
    1.853084E-01    5.080543E-01
    4.131679E-01    6.614681E-01
    2.130784E-01    4.412641E-01
   -3.300913E-01    4.284035E-02
   -8.611102E-01   -3.061903E-01
   -1.010197E+00   -5.168883E-01
   -6.614827E-01   -6.317503E-01
   -1.719137E-02   -6.931683E-01
    5.752247E-01   -6.540689E-01
    8.691978E-01   -4.315976E-01
    8.379805E-01   -3.800203E-02
    6.073190E-01    3.646050E-01
    3.110018E-01    5.633389E-01
    1.720939E-02    4.659946E-01
   -2.343039E-01    1.836099E-01
   -3.713710E-01   -5.765478E-02
   -3.081923E-01   -9.759065E-02
   -4.127687E-02    4.517991E-02
    2.848646E-01    2.201571E-01
    4.396170E-01    2.927425E-01
    2.715785E-01    2.487879E-01
   -1.588192E-01    1.683095E-01
   -6.025772E-01    1.143932E-01
   -7.939385E-01    6.138254E-02
   -6.340037E-01   -6.469934E-02
   -2.417907E-01   -2.808917E-01
    1.548150E-01   -4.926608E-01
    3.840496E-01   -5.546558E-01
    4.171185E-01   -3.957520E-01
    3.302748E-01   -9.141596E-02
    2.077758E-01    1.857099E-01
    8.594399E-02    2.946616E-01
   -2.638953E-02    2.221489E-01
   -1.011969E-01    6.984000E-02
   -8.861911E-02   -4.213255E-02
    3.064332E-02   -6.236588E-02
    1.970635E-01   -1.668960E-02
    2.920770E-01    4.832274E-02
    2.237286E-01    1.157789E-01
    5.939721E-03    1.923459E-01
   -2.425550E-01    2.642194E-01
   -3.835574E-01    2.768092E-01
   -3.577572E-01    1.730002E-01
