 Vespa-Simulation Mixed Metabolite Output
 This file was generated by Vespa-Simulation. You can learn about and download Vespa here:
https://github.com/vespa-mrs/vespa/tree/main/vespa

 
 Output Path/Filename = /home/stud/casperc/bhome/Project1(DeepFit)/DeepFit-data-generation/DeepFitData_TE_20_lw10_2048p
 Output Loop Values = (1,1,1)  ( Loop 1 = 10, Loop 2 = 10, Loop3 Inactive )
 Output Comment
 ---------------------------------------------------------------------------
 
 
 Experiment Information
 ---------------------------------------------------------------------------
 --- Experiment 18b0168e-f5f0-4bd4-8d52-da93aba06c60 ---
 Name: SyntheticDataSetDeepFitTE20
 Public: False
 Created: 2024-10-08T09:55:07
 Comment (abbr.): 
 PI: Casper Cappelen
 b0: 127.740000
 Peak Search PPM low/high: -15.000000 / 15.000000
 Blend tol. PPM/phase: 0.001500 / 50.000000
 Pulse seq.: 43be13ae-de9a-40a1-9a2d-c872d8bjs100 (PRESS Ideal)
 0 User static parameters: 
 22 Metabolites: 2-hydroxyglutarate, GPC-pcholine2, NAAG-truncated, alanine, choline-trimethyl, creatine, ethanolamine, gaba, glucose-beta, glutamate, glutamine, glutathione-glutamate, glutathione-glycine-cysteine, glycine, lactate, myo-inositol, n-acetylaspartate, phosphocreatine, phosphorylcholine-trimethyl, phosphorylethanolamine, pyruvate, taurine
 22 Simulations: (not shown)
 
 Metabolite Formatting Information
 ---------------------------------------------------------------------------
 Name=2-hydroxyglutarate Abbr=2HG Scale=1.0 Shift=0.0 PPM Start=-3.1207465171441986 PPM End=12.528391440425866
 Name=GPC-pcholine2 Abbr=GPC Scale=1.0 Shift=0.0 PPM Start=-3.1207465171441986 PPM End=12.528391440425866
 Name=NAAG-truncated Abbr=NAAG Scale=1.0 Shift=0.0 PPM Start=-3.1207465171441986 PPM End=12.528391440425866
 Name=alanine Abbr=Ala Scale=1.0 Shift=0.0 PPM Start=-3.1207465171441986 PPM End=12.528391440425866
 Name=choline-trimethyl Abbr=Cho Scale=1.0 Shift=0.0 PPM Start=-3.1207465171441986 PPM End=12.528391440425866
 Name=creatine Abbr=Cr Scale=1.0 Shift=0.0 PPM Start=-3.1207465171441986 PPM End=12.528391440425866
 Name=ethanolamine Abbr=ETA Scale=1.0 Shift=0.0 PPM Start=-3.1207465171441986 PPM End=12.528391440425866
 Name=gaba Abbr=GABA Scale=1.0 Shift=0.0 PPM Start=-3.1207465171441986 PPM End=12.528391440425866
 Name=glucose-beta Abbr=Glc Scale=1.0 Shift=0.0 PPM Start=-3.1207465171441986 PPM End=12.528391440425866
 Name=glutamate Abbr=Glu Scale=1.0 Shift=0.0 PPM Start=-3.1207465171441986 PPM End=12.528391440425866
 Name=glutamine Abbr=Gln Scale=1.0 Shift=0.0 PPM Start=-3.1207465171441986 PPM End=12.528391440425866
 Name=glycine Abbr=Gly Scale=1.0 Shift=0.0 PPM Start=-3.1207465171441986 PPM End=12.528391440425866
 Name=lactate Abbr=Lac Scale=1.0 Shift=0.0 PPM Start=-3.1207465171441986 PPM End=12.528391440425866
 Name=myo-inositol Abbr=mI Scale=1.0 Shift=0.0 PPM Start=-3.1207465171441986 PPM End=12.528391440425866
 Name=n-acetylaspartate Abbr=NAA Scale=1.0 Shift=0.0 PPM Start=-3.1207465171441986 PPM End=12.528391440425866
 Name=phosphocreatine Abbr=PCr Scale=1.0 Shift=0.0 PPM Start=-3.1207465171441986 PPM End=12.528391440425866
 Name=phosphorylcholine-trimethyl Abbr=PCho Scale=1.0 Shift=0.0 PPM Start=-3.1207465171441986 PPM End=12.528391440425866
 Name=phosphorylethanolamine Abbr=PE Scale=1.0 Shift=0.0 PPM Start=-3.1207465171441986 PPM End=12.528391440425866
 Name=pyruvate Abbr=Pyr Scale=1.0 Shift=0.0 PPM Start=-3.1207465171441986 PPM End=12.528391440425866
 Name=taurine Abbr=Tau Scale=1.0 Shift=0.0 PPM Start=-3.1207465171441986 PPM End=12.528391440425866
 Name=glutathione-glutamate+glutathione-glycine-cysteine Abbr=GSH Scale=1.0 Shift=0.0 PPM Start=-3.1207565171441987 PPM End=12.528
   Mixture of [metab*scale] = glutathione-glutamate*1.000000 + glutathione-glycine-cysteine*1.000000
 
 ===========================================================================
 This LCModel format RAW file was created using the 
 Vespa-Simulation spectral simulation program using 
 the following settings and parameters 
 
 Sweep Width = 2000.0 Hz 
 Vector Size = 2048 points 
 Apodization = 10.0 Hz Gaussian broadening
 B0 Field    = 127.74 MHz 
 Ref Singlet = False
  
 This data has been FFTd to be in the FREQUENCY domain
 
 $NMID ID='PCr'
 FMTDAT='(2E16.6)'
 VOLUME=1.0
 TRAMP=1.0
 $END
    3.500089E+00    8.606079E+00
    3.500078E+00    8.701949E+00
    3.500064E+00    8.799279E+00
    3.500047E+00    8.898116E+00
    3.500028E+00    8.998508E+00
    3.500008E+00    9.100504E+00
    3.499989E+00    9.204155E+00
    3.499973E+00    9.309512E+00
    3.499962E+00    9.416628E+00
    3.499956E+00    9.525556E+00
    3.499956E+00    9.636354E+00
    3.499958E+00    9.749081E+00
    3.499962E+00    9.863800E+00
    3.499964E+00    9.980580E+00
    3.499963E+00    1.009949E+01
    3.499959E+00    1.022061E+01
    3.499953E+00    1.034401E+01
    3.499945E+00    1.046978E+01
    3.499938E+00    1.059800E+01
    3.499932E+00    1.072876E+01
    3.499926E+00    1.086215E+01
    3.499921E+00    1.099826E+01
    3.499916E+00    1.113720E+01
    3.499911E+00    1.127907E+01
    3.499905E+00    1.142399E+01
    3.499900E+00    1.157208E+01
    3.499896E+00    1.172345E+01
    3.499892E+00    1.187825E+01
    3.499889E+00    1.203660E+01
    3.499887E+00    1.219867E+01
    3.499888E+00    1.236459E+01
    3.499892E+00    1.253454E+01
    3.499902E+00    1.270868E+01
    3.499917E+00    1.288720E+01
    3.499939E+00    1.307028E+01
    3.499968E+00    1.325814E+01
    3.500001E+00    1.345098E+01
    3.500037E+00    1.364904E+01
    3.500071E+00    1.385257E+01
    3.500102E+00    1.406182E+01
    3.500126E+00    1.427708E+01
    3.500140E+00    1.449865E+01
    3.500143E+00    1.472685E+01
    3.500134E+00    1.496203E+01
    3.500113E+00    1.520457E+01
    3.500083E+00    1.545485E+01
    3.500046E+00    1.571331E+01
    3.500007E+00    1.598040E+01
    3.499970E+00    1.625662E+01
    3.499939E+00    1.654249E+01
    3.499916E+00    1.683858E+01
    3.499903E+00    1.714551E+01
    3.499898E+00    1.746395E+01
    3.499902E+00    1.779462E+01
    3.499912E+00    1.813833E+01
    3.499925E+00    1.849595E+01
    3.499940E+00    1.886841E+01
    3.499953E+00    1.925677E+01
    3.499965E+00    1.966216E+01
    3.499971E+00    2.008586E+01
    3.499973E+00    2.052924E+01
    3.499970E+00    2.099385E+01
    3.499964E+00    2.148140E+01
    3.499957E+00    2.199380E+01
    3.499950E+00    2.253315E+01
    3.499946E+00    2.310185E+01
    3.499947E+00    2.370256E+01
    3.499953E+00    2.433831E+01
    3.499964E+00    2.501252E+01
    3.499979E+00    2.572910E+01
    3.499997E+00    2.649254E+01
    3.500015E+00    2.730798E+01
    3.500032E+00    2.818141E+01
    3.500046E+00    2.911979E+01
    3.500058E+00    3.013135E+01
    3.500067E+00    3.122580E+01
    3.500080E+00    3.241480E+01
    3.500120E+00    3.371250E+01
    3.500264E+00    3.513627E+01
    3.500737E+00    3.670786E+01
    3.502184E+00    3.845499E+01
    3.506323E+00    4.041376E+01
    3.517478E+00    4.263218E+01
    3.545882E+00    4.517493E+01
    3.614253E+00    4.812945E+01
    3.769833E+00    5.161226E+01
    4.104380E+00    5.577263E+01
    4.783852E+00    6.078829E+01
    6.086490E+00    6.684456E+01
    8.441945E+00    7.408672E+01
    1.245521E+01    8.253777E+01
    1.889022E+01    9.198315E+01
    2.858444E+01    1.018416E+02
    4.227522E+01    1.110642E+02
    6.034531E+01    1.181204E+02
    8.253605E+01    1.211298E+02
    1.077188E+02    1.181684E+02
    1.338339E+02    1.077144E+02
    1.580820E+02    8.912998E+01
    1.773803E+02    6.302408E+01
    1.889951E+02    3.134484E+01
    1.911742E+02   -2.877180E+00
    1.835807E+02   -3.609547E+01
    1.673777E+02   -6.496841E+01
    1.449369E+02   -8.701830E+01
    1.192700E+02   -1.010371E+02
    9.337099E+01   -1.071447E+02
    6.966575E+01   -1.065292E+02
    4.969949E+01   -1.009977E+02
    3.409364E+01   -9.249741E+01
    2.271389E+01   -8.273939E+01
    1.494429E+01   -7.299076E+01
    9.964746E+00   -6.403017E+01
    6.963398E+00   -5.621832E+01
    5.259708E+00   -4.962124E+01
    4.347942E+00   -4.413521E+01
    3.887511E+00   -3.958476E+01
    3.667963E+00   -3.578486E+01
    3.569059E+00   -3.257236E+01
    3.526943E+00   -2.981641E+01
    3.509981E+00   -2.741741E+01
    3.503511E+00   -2.530140E+01
    3.501167E+00   -2.341364E+01
    3.500352E+00   -2.171322E+01
    3.500077E+00   -2.016904E+01
    3.499986E+00   -1.875689E+01
    3.499961E+00   -1.745757E+01
    3.499962E+00   -1.625558E+01
    3.499977E+00   -1.513818E+01
    3.499997E+00   -1.409477E+01
    3.500017E+00   -1.311644E+01
    3.500030E+00   -1.219563E+01
    3.500035E+00   -1.132584E+01
    3.500030E+00   -1.050149E+01
    3.500019E+00   -9.717699E+00
    3.500005E+00   -8.970223E+00
    3.499992E+00   -8.255320E+00
    3.499983E+00   -7.569680E+00
    3.499980E+00   -6.910363E+00
    3.499982E+00   -6.274737E+00
    3.499989E+00   -5.660437E+00
    3.499997E+00   -5.065324E+00
    3.500006E+00   -4.487456E+00
    3.500012E+00   -3.925062E+00
    3.500016E+00   -3.376516E+00
    3.500016E+00   -2.840320E+00
    3.500011E+00   -2.315086E+00
    3.500002E+00   -1.799523E+00
    3.499990E+00   -1.292423E+00
    3.499977E+00   -7.926510E-01
    3.499964E+00   -2.991334E-01
    3.499954E+00    1.891493E-01
    3.499948E+00    6.731713E-01
    3.499946E+00    1.153870E+00
    3.499949E+00    1.632151E+00
    3.499956E+00    2.108898E+00
    3.499967E+00    2.584975E+00
    3.499980E+00    3.061236E+00
    3.499994E+00    3.538525E+00
    3.500009E+00    4.017689E+00
    3.500021E+00    4.499574E+00
    3.500031E+00    4.985039E+00
    3.500037E+00    5.474956E+00
    3.500039E+00    5.970216E+00
    3.500038E+00    6.471735E+00
    3.500035E+00    6.980459E+00
    3.500030E+00    7.497372E+00
    3.500025E+00    8.023499E+00
    3.500020E+00    8.559919E+00
    3.500016E+00    9.107765E+00
    3.500013E+00    9.668243E+00
    3.500013E+00    1.024263E+01
    3.500015E+00    1.083230E+01
