 Vespa-Simulation Mixed Metabolite Output
 This file was generated by Vespa-Simulation. You can learn about and download Vespa here:
https://github.com/vespa-mrs/vespa/tree/main/vespa

 
 Output Path/Filename = /home/stud/casperc/bhome/Project1(DeepFit)/DeepFit-data-generation/DeepFitData_TE_20_lw10_2048p
 Output Loop Values = (1,1,1)  ( Loop 1 = 10, Loop 2 = 10, Loop3 Inactive )
 Output Comment
 ---------------------------------------------------------------------------
 
 
 Experiment Information
 ---------------------------------------------------------------------------
 --- Experiment 18b0168e-f5f0-4bd4-8d52-da93aba06c60 ---
 Name: SyntheticDataSetDeepFitTE20
 Public: False
 Created: 2024-10-08T09:55:07
 Comment (abbr.): 
 PI: Casper Cappelen
 b0: 127.740000
 Peak Search PPM low/high: -15.000000 / 15.000000
 Blend tol. PPM/phase: 0.001500 / 50.000000
 Pulse seq.: 43be13ae-de9a-40a1-9a2d-c872d8bjs100 (PRESS Ideal)
 0 User static parameters: 
 22 Metabolites: 2-hydroxyglutarate, GPC-pcholine2, NAAG-truncated, alanine, choline-trimethyl, creatine, ethanolamine, gaba, glucose-beta, glutamate, glutamine, glutathione-glutamate, glutathione-glycine-cysteine, glycine, lactate, myo-inositol, n-acetylaspartate, phosphocreatine, phosphorylcholine-trimethyl, phosphorylethanolamine, pyruvate, taurine
 22 Simulations: (not shown)
 
 Metabolite Formatting Information
 ---------------------------------------------------------------------------
 Name=2-hydroxyglutarate Abbr=2HG Scale=1.0 Shift=0.0 PPM Start=-3.1207465171441986 PPM End=12.528391440425866
 Name=GPC-pcholine2 Abbr=GPC Scale=1.0 Shift=0.0 PPM Start=-3.1207465171441986 PPM End=12.528391440425866
 Name=NAAG-truncated Abbr=NAAG Scale=1.0 Shift=0.0 PPM Start=-3.1207465171441986 PPM End=12.528391440425866
 Name=alanine Abbr=Ala Scale=1.0 Shift=0.0 PPM Start=-3.1207465171441986 PPM End=12.528391440425866
 Name=choline-trimethyl Abbr=Cho Scale=1.0 Shift=0.0 PPM Start=-3.1207465171441986 PPM End=12.528391440425866
 Name=creatine Abbr=Cr Scale=1.0 Shift=0.0 PPM Start=-3.1207465171441986 PPM End=12.528391440425866
 Name=ethanolamine Abbr=ETA Scale=1.0 Shift=0.0 PPM Start=-3.1207465171441986 PPM End=12.528391440425866
 Name=gaba Abbr=GABA Scale=1.0 Shift=0.0 PPM Start=-3.1207465171441986 PPM End=12.528391440425866
 Name=glucose-beta Abbr=Glc Scale=1.0 Shift=0.0 PPM Start=-3.1207465171441986 PPM End=12.528391440425866
 Name=glutamate Abbr=Glu Scale=1.0 Shift=0.0 PPM Start=-3.1207465171441986 PPM End=12.528391440425866
 Name=glutamine Abbr=Gln Scale=1.0 Shift=0.0 PPM Start=-3.1207465171441986 PPM End=12.528391440425866
 Name=glycine Abbr=Gly Scale=1.0 Shift=0.0 PPM Start=-3.1207465171441986 PPM End=12.528391440425866
 Name=lactate Abbr=Lac Scale=1.0 Shift=0.0 PPM Start=-3.1207465171441986 PPM End=12.528391440425866
 Name=myo-inositol Abbr=mI Scale=1.0 Shift=0.0 PPM Start=-3.1207465171441986 PPM End=12.528391440425866
 Name=n-acetylaspartate Abbr=NAA Scale=1.0 Shift=0.0 PPM Start=-3.1207465171441986 PPM End=12.528391440425866
 Name=phosphocreatine Abbr=PCr Scale=1.0 Shift=0.0 PPM Start=-3.1207465171441986 PPM End=12.528391440425866
 Name=phosphorylcholine-trimethyl Abbr=PCho Scale=1.0 Shift=0.0 PPM Start=-3.1207465171441986 PPM End=12.528391440425866
 Name=phosphorylethanolamine Abbr=PE Scale=1.0 Shift=0.0 PPM Start=-3.1207465171441986 PPM End=12.528391440425866
 Name=pyruvate Abbr=Pyr Scale=1.0 Shift=0.0 PPM Start=-3.1207465171441986 PPM End=12.528391440425866
 Name=taurine Abbr=Tau Scale=1.0 Shift=0.0 PPM Start=-3.1207465171441986 PPM End=12.528391440425866
 Name=glutathione-glutamate+glutathione-glycine-cysteine Abbr=GSH Scale=1.0 Shift=0.0 PPM Start=-3.1207565171441987 PPM End=12.528
   Mixture of [metab*scale] = glutathione-glutamate*1.000000 + glutathione-glycine-cysteine*1.000000
 
 ===========================================================================
 This LCModel format RAW file was created using the 
 Vespa-Simulation spectral simulation program using 
 the following settings and parameters 
 
 Sweep Width = 2000.0 Hz 
 Vector Size = 2048 points 
 Apodization = 10.0 Hz Gaussian broadening
 B0 Field    = 127.74 MHz 
 Ref Singlet = False
  
 $NMID ID='PE'
 FMTDAT='(2E16.6)'
 VOLUME=1.0
 TRAMP=1.0
 $END
    3.627676E+00   -1.360233E-03
    3.242640E+00    1.530607E+00
    2.198383E+00    2.672203E+00
    7.964069E-01    3.156409E+00
   -5.737242E-01    2.921006E+00
   -1.560978E+00    2.119685E+00
   -1.962793E+00    1.061471E+00
   -1.781484E+00    1.006691E-01
   -1.209420E+00   -4.839500E-01
   -5.500232E-01   -5.790824E-01
   -1.036056E-01   -2.658692E-01
   -5.865560E-02    2.204772E-01
   -4.263290E-01    5.844861E-01
   -1.040196E+00    5.835928E-01
   -1.620080E+00    1.204069E-01
   -1.876495E+00   -7.181354E-01
   -1.618386E+00   -1.687948E+00
   -8.263119E-01   -2.471035E+00
    3.342935E-01   -2.785479E+00
    1.564031E+00   -2.483599E+00
    2.526360E+00   -1.604623E+00
    2.957075E+00   -3.642873E-01
    2.748834E+00    9.143510E-01
    1.982694E+00    1.904513E+00
    8.971464E-01    2.378177E+00
   -1.933713E-01    2.273093E+00
   -1.001663E+00    1.702974E+00
   -1.357319E+00    9.093869E-01
   -1.253024E+00    1.737419E-01
   -8.337446E-01   -2.792547E-01
   -3.348616E-01   -3.535590E-01
    7.362070E-03   -1.054953E-01
    4.102956E-02    2.867980E-01
   -2.498071E-01    5.955185E-01
   -7.439747E-01    6.302279E-01
   -1.231017E+00    3.088453E-01
   -1.489946E+00   -3.117972E-01
   -1.370332E+00   -1.055347E+00
   -8.475999E-01   -1.687200E+00
   -3.373899E-02   -1.995672E+00
    8.589236E-01   -1.864236E+00
    1.587830E+00   -1.310632E+00
    1.958860E+00   -4.802920E-01
    1.887376E+00    4.025308E-01
    1.421203E+00    1.107737E+00
    7.195494E-01    1.471745E+00
   -3.284590E-03    1.444524E+00
   -5.492892E-01    1.097329E+00
   -7.983365E-01    5.901058E-01
   -7.401059E-01    1.119124E-01
   -4.673170E-01   -1.843723E-01
   -1.346335E-01   -2.304368E-01
    1.006805E-01   -5.881154E-02
    1.350239E-01    2.168606E-01
   -4.748606E-02    4.486240E-01
   -3.737457E-01    5.104677E-01
   -7.119570E-01    3.440631E-01
   -9.213183E-01   -2.136294E-02
   -9.031239E-01   -4.807874E-01
   -6.353720E-01   -8.912115E-01
   -1.798313E-01   -1.121414E+00
    3.398716E-01   -1.096184E+00
    7.801582E-01   -8.200414E-01
    1.024631E+00   -3.734438E-01
    1.019972E+00    1.158778E-01
    7.894902E-01    5.156697E-01
    4.207865E-01    7.309897E-01
    3.341058E-02    7.309792E-01
   -2.616380E-01    5.530862E-01
   -3.964390E-01    2.845379E-01
   -3.637102E-01    2.894937E-02
   -2.126588E-01   -1.295322E-01
   -2.638044E-02   -1.525011E-01
    1.103144E-01   -5.573162E-02
    1.408239E-01    1.016657E-01
    5.450296E-02    2.421288E-01
   -1.129805E-01    2.990173E-01
   -2.955248E-01    2.400043E-01
   -4.219427E-01    7.688087E-02
   -4.415238E-01   -1.406298E-01
   -3.409126E-01   -3.438071E-01
   -1.471176E-01   -4.692941E-01
    8.331457E-02   -4.800531E-01
    2.844125E-01   -3.762559E-01
    4.027042E-01   -1.929743E-01
    4.133249E-01    1.340531E-02
    3.255992E-01    1.847109E-01
    1.769654E-01    2.793994E-01
    1.831423E-02    2.838889E-01
   -1.035097E-01    2.136277E-01
   -1.600852E-01    1.046673E-01
   -1.481291E-01   -5.828007E-04
   -8.715742E-02   -6.803502E-02
   -9.859416E-03   -8.202582E-02
    5.073926E-02   -4.804466E-02
    7.264448E-02    1.205313E-02
    5.106506E-02    6.980336E-02
   -2.065601E-03    1.009623E-01
   -6.429142E-02    9.356111E-02
   -1.117452E-01    5.073877E-02
   -1.276419E-01   -1.198090E-02
   -1.073504E-01   -7.337007E-02
   -5.867769E-02   -1.143377E-01
    2.133498E-03   -1.240960E-01
    5.673250E-02   -1.027191E-01
    9.087690E-02   -5.973997E-02
    9.840304E-02   -9.769086E-03
    8.190382E-02    3.288699E-02
    5.042358E-02    5.865016E-02
    1.541931E-02    6.474991E-02
   -1.331483E-02    5.465627E-02
   -3.031161E-02    3.554172E-02
   -3.504865E-02    1.506738E-02
   -3.070300E-02   -1.219657E-03
   -2.192136E-02   -1.105094E-02
   -1.268610E-02   -1.504244E-02
   -5.108920E-03   -1.529244E-02
    5.718299E-04   -1.380707E-02
    5.081222E-03   -1.151539E-02
    8.954013E-03   -8.227287E-03
    1.180554E-02   -3.372032E-03
    1.240402E-02    3.018340E-03
    9.462662E-03    9.697261E-03
    2.690524E-03    1.436706E-02
   -6.508624E-03    1.459954E-02
   -1.514249E-02    9.097176E-03
   -1.960636E-02   -1.328210E-03
   -1.718067E-02   -1.359978E-02
   -7.403700E-03   -2.324034E-02
    7.322493E-03   -2.600189E-02
    2.226481E-02   -1.963675E-02
    3.191095E-02   -5.071598E-03
    3.202800E-02    1.356214E-02
    2.141808E-02    3.016172E-02
    2.656289E-03    3.876044E-02
   -1.855252E-02    3.574912E-02
   -3.523879E-02    2.136293E-02
   -4.161474E-02   -1.704140E-04
   -3.521177E-02   -2.195609E-02
   -1.789402E-02   -3.676732E-02
    4.654987E-03   -3.960657E-02
    2.484277E-02   -2.952997E-02
    3.580876E-02   -1.006373E-02
    3.385510E-02    1.196887E-02
    1.978931E-02    2.881201E-02
   -1.325281E-03    3.450652E-02
   -2.191586E-02    2.699075E-02
   -3.455301E-02    8.852036E-03
   -3.455562E-02   -1.356565E-02
   -2.163244E-02   -3.237036E-02
    1.522888E-05   -4.086652E-02
    2.315344E-02   -3.586974E-02
    4.002521E-02   -1.878055E-02
    4.499148E-02    4.929410E-03
    3.642613E-02    2.762773E-02
    1.719099E-02    4.213491E-02
   -6.429249E-03    4.412496E-02
   -2.692930E-02    3.349113E-02
   -3.813364E-02    1.423636E-02
   -3.720850E-02   -7.026449E-03
   -2.546199E-02   -2.341461E-02
   -7.702501E-03   -3.009265E-02
    9.566362E-03   -2.581174E-02
    2.045191E-02   -1.314411E-02
    2.166279E-02    2.601460E-03
    1.351300E-02    1.535529E-02
   -3.618481E-04    2.043419E-02
   -1.442814E-02    1.611416E-02
   -2.326013E-02    4.108401E-03
   -2.343260E-02   -1.115685E-02
   -1.464027E-02   -2.417337E-02
    2.990133E-04   -3.028424E-02
    1.650721E-02   -2.724513E-02
    2.876121E-02   -1.590102E-02
