 Vespa-Simulation Mixed Metabolite Output
 This file was generated by Vespa-Simulation. You can learn about and download Vespa here:
https://github.com/vespa-mrs/vespa/tree/main/vespa

 
 Output Path/Filename = /home/stud/casperc/bhome/Project1(DeepFit)/DeepFit-data-generation/DeepFitData_TE_20_lw10_2048p
 Output Loop Values = (1,1,1)  ( Loop 1 = 10, Loop 2 = 10, Loop3 Inactive )
 Output Comment
 ---------------------------------------------------------------------------
 
 
 Experiment Information
 ---------------------------------------------------------------------------
 --- Experiment 18b0168e-f5f0-4bd4-8d52-da93aba06c60 ---
 Name: SyntheticDataSetDeepFitTE20
 Public: False
 Created: 2024-10-08T09:55:07
 Comment (abbr.): 
 PI: Casper Cappelen
 b0: 127.740000
 Peak Search PPM low/high: -15.000000 / 15.000000
 Blend tol. PPM/phase: 0.001500 / 50.000000
 Pulse seq.: 43be13ae-de9a-40a1-9a2d-c872d8bjs100 (PRESS Ideal)
 0 User static parameters: 
 22 Metabolites: 2-hydroxyglutarate, GPC-pcholine2, NAAG-truncated, alanine, choline-trimethyl, creatine, ethanolamine, gaba, glucose-beta, glutamate, glutamine, glutathione-glutamate, glutathione-glycine-cysteine, glycine, lactate, myo-inositol, n-acetylaspartate, phosphocreatine, phosphorylcholine-trimethyl, phosphorylethanolamine, pyruvate, taurine
 22 Simulations: (not shown)
 
 Metabolite Formatting Information
 ---------------------------------------------------------------------------
 Name=2-hydroxyglutarate Abbr=2HG Scale=1.0 Shift=0.0 PPM Start=-3.1207465171441986 PPM End=12.528391440425866
 Name=GPC-pcholine2 Abbr=GPC Scale=1.0 Shift=0.0 PPM Start=-3.1207465171441986 PPM End=12.528391440425866
 Name=NAAG-truncated Abbr=NAAG Scale=1.0 Shift=0.0 PPM Start=-3.1207465171441986 PPM End=12.528391440425866
 Name=alanine Abbr=Ala Scale=1.0 Shift=0.0 PPM Start=-3.1207465171441986 PPM End=12.528391440425866
 Name=choline-trimethyl Abbr=Cho Scale=1.0 Shift=0.0 PPM Start=-3.1207465171441986 PPM End=12.528391440425866
 Name=creatine Abbr=Cr Scale=1.0 Shift=0.0 PPM Start=-3.1207465171441986 PPM End=12.528391440425866
 Name=ethanolamine Abbr=ETA Scale=1.0 Shift=0.0 PPM Start=-3.1207465171441986 PPM End=12.528391440425866
 Name=gaba Abbr=GABA Scale=1.0 Shift=0.0 PPM Start=-3.1207465171441986 PPM End=12.528391440425866
 Name=glucose-beta Abbr=Glc Scale=1.0 Shift=0.0 PPM Start=-3.1207465171441986 PPM End=12.528391440425866
 Name=glutamate Abbr=Glu Scale=1.0 Shift=0.0 PPM Start=-3.1207465171441986 PPM End=12.528391440425866
 Name=glutamine Abbr=Gln Scale=1.0 Shift=0.0 PPM Start=-3.1207465171441986 PPM End=12.528391440425866
 Name=glycine Abbr=Gly Scale=1.0 Shift=0.0 PPM Start=-3.1207465171441986 PPM End=12.528391440425866
 Name=lactate Abbr=Lac Scale=1.0 Shift=0.0 PPM Start=-3.1207465171441986 PPM End=12.528391440425866
 Name=myo-inositol Abbr=mI Scale=1.0 Shift=0.0 PPM Start=-3.1207465171441986 PPM End=12.528391440425866
 Name=n-acetylaspartate Abbr=NAA Scale=1.0 Shift=0.0 PPM Start=-3.1207465171441986 PPM End=12.528391440425866
 Name=phosphocreatine Abbr=PCr Scale=1.0 Shift=0.0 PPM Start=-3.1207465171441986 PPM End=12.528391440425866
 Name=phosphorylcholine-trimethyl Abbr=PCho Scale=1.0 Shift=0.0 PPM Start=-3.1207465171441986 PPM End=12.528391440425866
 Name=phosphorylethanolamine Abbr=PE Scale=1.0 Shift=0.0 PPM Start=-3.1207465171441986 PPM End=12.528391440425866
 Name=pyruvate Abbr=Pyr Scale=1.0 Shift=0.0 PPM Start=-3.1207465171441986 PPM End=12.528391440425866
 Name=taurine Abbr=Tau Scale=1.0 Shift=0.0 PPM Start=-3.1207465171441986 PPM End=12.528391440425866
 Name=glutathione-glutamate+glutathione-glycine-cysteine Abbr=GSH Scale=1.0 Shift=0.0 PPM Start=-3.1207565171441987 PPM End=12.528
   Mixture of [metab*scale] = glutathione-glutamate*1.000000 + glutathione-glycine-cysteine*1.000000
 
 ===========================================================================
 This LCModel format RAW file was created using the 
 Vespa-Simulation spectral simulation program using 
 the following settings and parameters 
 
 Sweep Width = 2000.0 Hz 
 Vector Size = 2048 points 
 Apodization = 10.0 Hz Gaussian broadening
 B0 Field    = 127.74 MHz 
 Ref Singlet = False
  
 This data has been FFTd to be in the FREQUENCY domain
 
 $NMID ID='PE'
 FMTDAT='(2E16.6)'
 VOLUME=1.0
 TRAMP=1.0
 $END
    1.845030E+00    9.222677E+00
    1.846024E+00    9.307649E+00
    1.847062E+00    9.394283E+00
    1.848148E+00    9.482633E+00
    1.849282E+00    9.572751E+00
    1.850467E+00    9.664695E+00
    1.851706E+00    9.758524E+00
    1.853000E+00    9.854301E+00
    1.854351E+00    9.952092E+00
    1.855763E+00    1.005197E+01
    1.857238E+00    1.015399E+01
    1.858781E+00    1.025826E+01
    1.860395E+00    1.036483E+01
    1.862085E+00    1.047380E+01
    1.863855E+00    1.058524E+01
    1.865710E+00    1.069927E+01
    1.867656E+00    1.081596E+01
    1.869697E+00    1.093543E+01
    1.871841E+00    1.105777E+01
    1.874092E+00    1.118311E+01
    1.876459E+00    1.131156E+01
    1.878949E+00    1.144325E+01
    1.881570E+00    1.157830E+01
    1.884331E+00    1.171687E+01
    1.887243E+00    1.185910E+01
    1.890316E+00    1.200515E+01
    1.893561E+00    1.215518E+01
    1.896991E+00    1.230938E+01
    1.900620E+00    1.246792E+01
    1.904462E+00    1.263101E+01
    1.908531E+00    1.279886E+01
    1.912846E+00    1.297169E+01
    1.917424E+00    1.314976E+01
    1.922286E+00    1.333331E+01
    1.927454E+00    1.352263E+01
    1.932951E+00    1.371801E+01
    1.938803E+00    1.391977E+01
    1.945041E+00    1.412824E+01
    1.951694E+00    1.434379E+01
    1.958799E+00    1.456683E+01
    1.966393E+00    1.479777E+01
    1.974517E+00    1.503708E+01
    1.983218E+00    1.528525E+01
    1.992547E+00    1.554283E+01
    2.002557E+00    1.581041E+01
    2.013309E+00    1.608863E+01
    2.024871E+00    1.637820E+01
    2.037319E+00    1.667990E+01
    2.050744E+00    1.699461E+01
    2.065258E+00    1.732327E+01
    2.081009E+00    1.766697E+01
    2.098187E+00    1.802688E+01
    2.117046E+00    1.840430E+01
    2.137904E+00    1.880065E+01
    2.161149E+00    1.921746E+01
    2.187224E+00    1.965637E+01
    2.216604E+00    2.011917E+01
    2.249769E+00    2.060781E+01
    2.287183E+00    2.112450E+01
    2.329300E+00    2.167178E+01
    2.376592E+00    2.225266E+01
    2.429614E+00    2.287071E+01
    2.489086E+00    2.353020E+01
    2.555992E+00    2.423622E+01
    2.631688E+00    2.499483E+01
    2.718040E+00    2.581331E+01
    2.817649E+00    2.670047E+01
    2.934242E+00    2.766711E+01
    3.073362E+00    2.872652E+01
    3.243500E+00    2.989500E+01
    3.457849E+00    3.119221E+01
    3.736763E+00    3.264081E+01
    4.110836E+00    3.426502E+01
    4.624153E+00    3.608740E+01
    5.336697E+00    3.812326E+01
    6.324428E+00    4.037286E+01
    7.675316E+00    4.281244E+01
    9.480238E+00    4.538642E+01
    1.181917E+01    4.800412E+01
    1.474545E+01    5.054395E+01
    1.827294E+01    5.286610E+01
    2.237128E+01    5.483134E+01
    2.697244E+01    5.631992E+01
    3.198694E+01    5.724330E+01
    3.732327E+01    5.754333E+01
    4.290141E+01    5.717943E+01
    4.865347E+01    5.611030E+01
    5.451074E+01    5.428052E+01
    6.038365E+01    5.162003E+01
    6.614509E+01    4.805822E+01
    7.162566E+01    4.354669E+01
    7.662263E+01    3.808139E+01
    8.091846E+01    3.171670E+01
    8.430193E+01    2.456997E+01
    8.658793E+01    1.681906E+01
    8.763595E+01    8.695686E+00
    8.736897E+01    4.735189E-01
    8.579078E+01   -7.552909E+00
    8.299484E+01   -1.510003E+01
    7.915578E+01   -2.193256E+01
    7.450049E+01   -2.789380E+01
    6.926562E+01   -3.291573E+01
    6.365738E+01   -3.700310E+01
    5.783009E+01   -4.019856E+01
    5.189107E+01   -4.254543E+01
    4.592643E+01   -4.406584E+01
    4.003156E+01   -4.476313E+01
    3.432944E+01   -4.464430E+01
    2.896740E+01   -4.374857E+01
    2.409472E+01   -4.216659E+01
    1.983249E+01   -4.004089E+01
    1.624906E+01   -3.754811E+01
    1.335014E+01   -3.487119E+01
    1.108503E+01   -3.217219E+01
    9.364298E+00   -2.957402E+01
    8.081383E+00   -2.715408E+01
    7.131462E+00   -2.494830E+01
    6.423908E+00   -2.296132E+01
    5.887713E+00   -2.117835E+01
    5.471406E+00   -1.957550E+01
    5.139762E+00   -1.812693E+01
    4.869444E+00   -1.680889E+01
    4.645004E+00   -1.560113E+01
    4.455953E+00   -1.448694E+01
    4.294975E+00   -1.345244E+01
    4.157014E+00   -1.248603E+01
    4.038795E+00   -1.157804E+01
    3.938415E+00   -1.072062E+01
    3.854828E+00   -9.907822E+00
    3.787224E+00   -9.135384E+00
    3.734468E+00   -8.400374E+00
    3.694768E+00   -7.700595E+00
    3.665673E+00   -7.033952E+00
    3.644360E+00   -6.397988E+00
    3.628065E+00   -5.789672E+00
    3.614494E+00   -5.205481E+00
    3.602071E+00   -4.641653E+00
    3.589984E+00   -4.094512E+00
    3.578066E+00   -3.560726E+00
    3.566585E+00   -3.037448E+00
    3.556018E+00   -2.522338E+00
    3.546880E+00   -2.013490E+00
    3.539622E+00   -1.509324E+00
    3.534586E+00   -1.008471E+00
    3.532004E+00   -5.096832E-01
    3.532024E+00   -1.177422E-02
    3.534726E+00    4.864169E-01
    3.540142E+00    9.860426E-01
    3.548252E+00    1.488254E+00
    3.558971E+00    1.994212E+00
    3.572107E+00    2.505107E+00
    3.587317E+00    3.022211E+00
    3.604048E+00    3.546971E+00
    3.621521E+00    4.081162E+00
    3.638765E+00    4.627094E+00
    3.654779E+00    5.187844E+00
    3.668836E+00    5.767442E+00
    3.680927E+00    6.370919E+00
    3.692269E+00    7.004107E+00
    3.705711E+00    7.673142E+00
    3.725862E+00    8.383726E+00
    3.758764E+00    9.140327E+00
    3.811090E+00    9.945594E+00
    3.889014E+00    1.080029E+01
    3.997064E+00    1.170390E+01
    4.137364E+00    1.265591E+01
    4.309563E+00    1.365739E+01
    4.511567E+00    1.471268E+01
    4.740929E+00    1.583060E+01
    4.996613E+00    1.702521E+01
    5.280873E+00    1.831600E+01
    5.601164E+00    1.972795E+01
    5.972342E+00    2.129150E+01
