 Vespa-Simulation Mixed Metabolite Output
 This file was generated by Vespa-Simulation. You can learn about and download Vespa here:
https://github.com/vespa-mrs/vespa/tree/main/vespa

 
 Output Path/Filename = /home/stud/casperc/bhome/Project1(DeepFit)/DeepFit-data-generation/DeepFitData_TE_20_lw10_2048p
 Output Loop Values = (1,1,1)  ( Loop 1 = 10, Loop 2 = 10, Loop3 Inactive )
 Output Comment
 ---------------------------------------------------------------------------
 
 
 Experiment Information
 ---------------------------------------------------------------------------
 --- Experiment 18b0168e-f5f0-4bd4-8d52-da93aba06c60 ---
 Name: SyntheticDataSetDeepFitTE20
 Public: False
 Created: 2024-10-08T09:55:07
 Comment (abbr.): 
 PI: Casper Cappelen
 b0: 127.740000
 Peak Search PPM low/high: -15.000000 / 15.000000
 Blend tol. PPM/phase: 0.001500 / 50.000000
 Pulse seq.: 43be13ae-de9a-40a1-9a2d-c872d8bjs100 (PRESS Ideal)
 0 User static parameters: 
 22 Metabolites: 2-hydroxyglutarate, GPC-pcholine2, NAAG-truncated, alanine, choline-trimethyl, creatine, ethanolamine, gaba, glucose-beta, glutamate, glutamine, glutathione-glutamate, glutathione-glycine-cysteine, glycine, lactate, myo-inositol, n-acetylaspartate, phosphocreatine, phosphorylcholine-trimethyl, phosphorylethanolamine, pyruvate, taurine
 22 Simulations: (not shown)
 
 Metabolite Formatting Information
 ---------------------------------------------------------------------------
 Name=2-hydroxyglutarate Abbr=2HG Scale=1.0 Shift=0.0 PPM Start=-3.1207465171441986 PPM End=12.528391440425866
 Name=GPC-pcholine2 Abbr=GPC Scale=1.0 Shift=0.0 PPM Start=-3.1207465171441986 PPM End=12.528391440425866
 Name=NAAG-truncated Abbr=NAAG Scale=1.0 Shift=0.0 PPM Start=-3.1207465171441986 PPM End=12.528391440425866
 Name=alanine Abbr=Ala Scale=1.0 Shift=0.0 PPM Start=-3.1207465171441986 PPM End=12.528391440425866
 Name=choline-trimethyl Abbr=Cho Scale=1.0 Shift=0.0 PPM Start=-3.1207465171441986 PPM End=12.528391440425866
 Name=creatine Abbr=Cr Scale=1.0 Shift=0.0 PPM Start=-3.1207465171441986 PPM End=12.528391440425866
 Name=ethanolamine Abbr=ETA Scale=1.0 Shift=0.0 PPM Start=-3.1207465171441986 PPM End=12.528391440425866
 Name=gaba Abbr=GABA Scale=1.0 Shift=0.0 PPM Start=-3.1207465171441986 PPM End=12.528391440425866
 Name=glucose-beta Abbr=Glc Scale=1.0 Shift=0.0 PPM Start=-3.1207465171441986 PPM End=12.528391440425866
 Name=glutamate Abbr=Glu Scale=1.0 Shift=0.0 PPM Start=-3.1207465171441986 PPM End=12.528391440425866
 Name=glutamine Abbr=Gln Scale=1.0 Shift=0.0 PPM Start=-3.1207465171441986 PPM End=12.528391440425866
 Name=glycine Abbr=Gly Scale=1.0 Shift=0.0 PPM Start=-3.1207465171441986 PPM End=12.528391440425866
 Name=lactate Abbr=Lac Scale=1.0 Shift=0.0 PPM Start=-3.1207465171441986 PPM End=12.528391440425866
 Name=myo-inositol Abbr=mI Scale=1.0 Shift=0.0 PPM Start=-3.1207465171441986 PPM End=12.528391440425866
 Name=n-acetylaspartate Abbr=NAA Scale=1.0 Shift=0.0 PPM Start=-3.1207465171441986 PPM End=12.528391440425866
 Name=phosphocreatine Abbr=PCr Scale=1.0 Shift=0.0 PPM Start=-3.1207465171441986 PPM End=12.528391440425866
 Name=phosphorylcholine-trimethyl Abbr=PCho Scale=1.0 Shift=0.0 PPM Start=-3.1207465171441986 PPM End=12.528391440425866
 Name=phosphorylethanolamine Abbr=PE Scale=1.0 Shift=0.0 PPM Start=-3.1207465171441986 PPM End=12.528391440425866
 Name=pyruvate Abbr=Pyr Scale=1.0 Shift=0.0 PPM Start=-3.1207465171441986 PPM End=12.528391440425866
 Name=taurine Abbr=Tau Scale=1.0 Shift=0.0 PPM Start=-3.1207465171441986 PPM End=12.528391440425866
 Name=glutathione-glutamate+glutathione-glycine-cysteine Abbr=GSH Scale=1.0 Shift=0.0 PPM Start=-3.1207565171441987 PPM End=12.528
   Mixture of [metab*scale] = glutathione-glutamate*1.000000 + glutathione-glycine-cysteine*1.000000
 
 ===========================================================================
 This LCModel format RAW file was created using the 
 Vespa-Simulation spectral simulation program using 
 the following settings and parameters 
 
 Sweep Width = 2000.0 Hz 
 Vector Size = 2048 points 
 Apodization = 10.0 Hz Gaussian broadening
 B0 Field    = 127.74 MHz 
 Ref Singlet = False
  
 $NMID ID='Pyr'
 FMTDAT='(2E16.6)'
 VOLUME=1.0
 TRAMP=1.0
 $END
    3.000000E+00   -5.204170E-18
    1.770515E+00    2.421503E+00
   -9.094904E-01    2.857698E+00
   -2.842386E+00    9.520835E-01
   -2.444682E+00   -1.731468E+00
   -4.516927E-02   -2.993005E+00
    2.387079E+00   -1.801244E+00
    2.859642E+00    8.628115E-01
    9.900125E-01    2.813916E+00
   -1.684621E+00    2.456312E+00
   -2.972116E+00    8.972849E-02
   -1.823241E+00   -2.341878E+00
    8.126747E-01   -2.848200E+00
    2.772676E+00   -1.022778E+00
    2.456228E+00    1.630631E+00
    1.330813E-01    2.937624E+00
   -2.286521E+00    1.836212E+00
   -2.823534E+00   -7.597650E-01
   -1.049955E+00   -2.719225E+00
    1.570189E+00   -2.444469E+00
    2.890006E+00   -1.746584E-01
    1.840028E+00    2.221735E+00
   -7.047477E-01    2.786003E+00
   -2.654300E+00    1.071174E+00
   -2.421196E+00   -1.504131E+00
   -2.139190E-01   -2.829915E+00
    2.148405E+00   -1.834637E+00
    2.736120E+00    6.483727E-01
    1.086211E+00    2.578761E+00
   -1.433277E+00    2.386774E+00
   -2.758160E+00    2.504163E-01
   -1.820188E+00   -2.067462E+00
    5.913218E-01   -2.674580E+00
    2.493592E+00   -1.094941E+00
    2.341668E+00    1.358575E+00
    2.836886E-01    2.675699E+00
   -1.979951E+00    1.796912E+00
   -2.602220E+00   -5.342592E-01
   -1.097300E+00   -2.399898E+00
    1.280868E+00   -2.286559E+00
    2.583603E+00   -3.134264E-01
    1.765154E+00    1.886984E+00
   -4.778574E-01    2.520000E+00
   -2.298873E+00    1.093315E+00
   -2.222186E+00   -1.201106E+00
   -3.392940E-01   -2.483054E+00
    1.789622E+00   -1.725458E+00
    2.428991E+00    4.227229E-01
    1.083213E+00    2.191714E+00
   -1.120191E+00    2.149423E+00
   -2.375286E+00    3.611691E-01
   -1.678387E+00   -1.689021E+00
    3.694428E-01   -2.330340E+00
    2.079701E+00   -1.067209E+00
    2.069213E+00    1.039019E+00
    3.788921E-01    2.261599E+00
   -1.586316E+00    1.624596E+00
   -2.225274E+00   -3.184326E-01
   -1.045637E+00   -1.964102E+00
    9.583450E-01   -1.982620E+00
    2.143309E+00   -3.924212E-01
    1.564888E+00    1.482539E+00
   -2.701470E-01    2.115037E+00
   -1.846184E+00    1.018881E+00
   -1.890687E+00   -8.789878E-01
   -4.017902E-01   -2.021728E+00
    1.378748E+00   -1.500045E+00
    2.000885E+00    2.249597E-01
    9.874478E-01    1.727143E+00
   -8.015478E-01    1.794554E+00
   -1.898150E+00    4.070752E-01
   -1.430896E+00   -1.275927E+00
    1.830465E-01   -1.884078E+00
    1.608103E+00   -9.519130E-01
    1.695275E+00    7.267441E-01
    4.084789E-01    1.773806E+00
   -1.174896E+00    1.358368E+00
   -1.765817E+00   -1.447160E-01
   -9.127412E-01   -1.490200E+00
    6.550406E-01   -1.593963E+00
    1.649854E+00   -4.062789E-01
    1.283255E+00    1.076536E+00
   -1.100232E-01    1.647267E+00
   -1.374366E+00    8.706188E-01
   -1.491684E+00   -5.868250E-01
   -4.006473E-01   -1.527406E+00
    9.814986E-01   -1.206457E+00
    1.529520E+00    7.896703E-02
    8.260627E-01    1.261541E+00
   -5.225344E-01    1.389400E+00
   -1.407438E+00    3.919538E-01
   -1.128829E+00   -8.903428E-01
    5.162360E-02   -1.413571E+00
    1.152471E+00   -7.797224E-01
    1.288075E+00    4.623362E-01
    3.805829E-01    1.290817E+00
   -8.036271E-01    1.051101E+00
   -1.300326E+00   -2.786336E-02
   -7.322215E-01   -1.047796E+00
    4.064819E-01   -1.188528E+00
    1.178331E+00   -3.668183E-01
    9.740370E-01    7.216977E-01
   -7.518906E-03    1.190582E+00
   -9.481054E-01    6.840621E-01
   -1.091538E+00   -3.550191E-01
   -3.511116E-01   -1.070604E+00
    6.448077E-01   -8.983266E-01
    1.085022E+00   -9.509189E-03
    6.358157E-01    8.538027E-01
   -3.079337E-01    9.977784E-01
   -9.681805E-01    3.337722E-01
   -8.245268E-01   -5.731966E-01
   -2.347098E-02   -9.842151E-01
    7.651839E-01   -5.880015E-01
    9.077955E-01    2.652391E-01
    3.152068E-01    8.714537E-01
   -5.069034E-01    7.531973E-01
   -8.886146E-01    3.463116E-02
   -5.410195E-01   -6.824927E-01
    2.267941E-01   -8.220646E-01
    7.807046E-01   -2.957963E-01
    6.847488E-01    4.459850E-01
    4.318957E-02    7.985635E-01
   -6.058158E-01    4.952936E-01
   -7.409559E-01   -1.924191E-01
   -2.758273E-01   -6.961330E-01
    3.903505E-01   -6.195613E-01
    7.142948E-01   -4.944401E-02
    4.511667E-01    5.351673E-01
   -1.619435E-01    6.647279E-01
   -6.178019E-01    2.556564E-01
   -5.579286E-01   -3.398530E-01
   -5.368589E-02   -6.359406E-01
    4.704673E-01   -4.089406E-01
    5.935477E-01    1.351739E-01
    2.355088E-01    5.457232E-01
   -2.943588E-01    5.000259E-01
   -5.635426E-01    5.616119E-02
   -3.688281E-01   -4.115913E-01
    1.117814E-01   -5.275220E-01
    4.797758E-01   -2.157053E-01
    4.460261E-01    2.535744E-01
    5.710229E-02    4.970625E-01
   -3.583601E-01    3.309844E-01
   -4.666522E-01   -9.153866E-02
   -1.964246E-01   -4.198135E-01
    2.172695E-01   -3.959750E-01
    4.363785E-01   -5.682354E-02
    2.955809E-01    3.104824E-01
   -7.419466E-02    4.108744E-01
   -3.656262E-01    1.778259E-01
   -3.498789E-01   -1.851548E-01
   -5.552482E-02   -3.813169E-01
    2.676927E-01   -2.626685E-01
    3.600802E-01    5.941920E-02
    1.601045E-01    3.169237E-01
   -1.569424E-01    3.076792E-01
   -3.316521E-01    5.340128E-02
   -2.322642E-01   -2.296884E-01
    4.696731E-02   -3.140931E-01
    2.734126E-01   -1.433491E-01
    2.693015E-01    1.322777E-01
    5.069069E-02    2.871080E-01
   -1.961040E-01    2.043895E-01
   -2.726992E-01   -3.659114E-02
   -1.276290E-01   -2.347695E-01
    1.108648E-01   -2.345998E-01
    2.473869E-01   -4.754269E-02
    1.789846E-01    1.666089E-01
   -2.800327E-02    2.356587E-01
   -2.006289E-01    1.130291E-01
   -2.034015E-01   -9.240307E-02
   -4.409514E-02   -2.121689E-01
    1.408534E-01   -1.559764E-01
