 Vespa-Simulation Mixed Metabolite Output
 This file was generated by Vespa-Simulation. You can learn about and download Vespa here:
https://github.com/vespa-mrs/vespa/tree/main/vespa

 
 Output Path/Filename = /home/stud/casperc/bhome/Project1(DeepFit)/DeepFit-data-generation/DeepFitData_TE_20_lw10_2048p
 Output Loop Values = (1,1,1)  ( Loop 1 = 10, Loop 2 = 10, Loop3 Inactive )
 Output Comment
 ---------------------------------------------------------------------------
 
 
 Experiment Information
 ---------------------------------------------------------------------------
 --- Experiment 18b0168e-f5f0-4bd4-8d52-da93aba06c60 ---
 Name: SyntheticDataSetDeepFitTE20
 Public: False
 Created: 2024-10-08T09:55:07
 Comment (abbr.): 
 PI: Casper Cappelen
 b0: 127.740000
 Peak Search PPM low/high: -15.000000 / 15.000000
 Blend tol. PPM/phase: 0.001500 / 50.000000
 Pulse seq.: 43be13ae-de9a-40a1-9a2d-c872d8bjs100 (PRESS Ideal)
 0 User static parameters: 
 22 Metabolites: 2-hydroxyglutarate, GPC-pcholine2, NAAG-truncated, alanine, choline-trimethyl, creatine, ethanolamine, gaba, glucose-beta, glutamate, glutamine, glutathione-glutamate, glutathione-glycine-cysteine, glycine, lactate, myo-inositol, n-acetylaspartate, phosphocreatine, phosphorylcholine-trimethyl, phosphorylethanolamine, pyruvate, taurine
 22 Simulations: (not shown)
 
 Metabolite Formatting Information
 ---------------------------------------------------------------------------
 Name=2-hydroxyglutarate Abbr=2HG Scale=1.0 Shift=0.0 PPM Start=-3.1207465171441986 PPM End=12.528391440425866
 Name=GPC-pcholine2 Abbr=GPC Scale=1.0 Shift=0.0 PPM Start=-3.1207465171441986 PPM End=12.528391440425866
 Name=NAAG-truncated Abbr=NAAG Scale=1.0 Shift=0.0 PPM Start=-3.1207465171441986 PPM End=12.528391440425866
 Name=alanine Abbr=Ala Scale=1.0 Shift=0.0 PPM Start=-3.1207465171441986 PPM End=12.528391440425866
 Name=choline-trimethyl Abbr=Cho Scale=1.0 Shift=0.0 PPM Start=-3.1207465171441986 PPM End=12.528391440425866
 Name=creatine Abbr=Cr Scale=1.0 Shift=0.0 PPM Start=-3.1207465171441986 PPM End=12.528391440425866
 Name=ethanolamine Abbr=ETA Scale=1.0 Shift=0.0 PPM Start=-3.1207465171441986 PPM End=12.528391440425866
 Name=gaba Abbr=GABA Scale=1.0 Shift=0.0 PPM Start=-3.1207465171441986 PPM End=12.528391440425866
 Name=glucose-beta Abbr=Glc Scale=1.0 Shift=0.0 PPM Start=-3.1207465171441986 PPM End=12.528391440425866
 Name=glutamate Abbr=Glu Scale=1.0 Shift=0.0 PPM Start=-3.1207465171441986 PPM End=12.528391440425866
 Name=glutamine Abbr=Gln Scale=1.0 Shift=0.0 PPM Start=-3.1207465171441986 PPM End=12.528391440425866
 Name=glycine Abbr=Gly Scale=1.0 Shift=0.0 PPM Start=-3.1207465171441986 PPM End=12.528391440425866
 Name=lactate Abbr=Lac Scale=1.0 Shift=0.0 PPM Start=-3.1207465171441986 PPM End=12.528391440425866
 Name=myo-inositol Abbr=mI Scale=1.0 Shift=0.0 PPM Start=-3.1207465171441986 PPM End=12.528391440425866
 Name=n-acetylaspartate Abbr=NAA Scale=1.0 Shift=0.0 PPM Start=-3.1207465171441986 PPM End=12.528391440425866
 Name=phosphocreatine Abbr=PCr Scale=1.0 Shift=0.0 PPM Start=-3.1207465171441986 PPM End=12.528391440425866
 Name=phosphorylcholine-trimethyl Abbr=PCho Scale=1.0 Shift=0.0 PPM Start=-3.1207465171441986 PPM End=12.528391440425866
 Name=phosphorylethanolamine Abbr=PE Scale=1.0 Shift=0.0 PPM Start=-3.1207465171441986 PPM End=12.528391440425866
 Name=pyruvate Abbr=Pyr Scale=1.0 Shift=0.0 PPM Start=-3.1207465171441986 PPM End=12.528391440425866
 Name=taurine Abbr=Tau Scale=1.0 Shift=0.0 PPM Start=-3.1207465171441986 PPM End=12.528391440425866
 Name=glutathione-glutamate+glutathione-glycine-cysteine Abbr=GSH Scale=1.0 Shift=0.0 PPM Start=-3.1207565171441987 PPM End=12.528
   Mixture of [metab*scale] = glutathione-glutamate*1.000000 + glutathione-glycine-cysteine*1.000000
 
 ===========================================================================
 This LCModel format RAW file was created using the 
 Vespa-Simulation spectral simulation program using 
 the following settings and parameters 
 
 Sweep Width = 2000.0 Hz 
 Vector Size = 2048 points 
 Apodization = 10.0 Hz Gaussian broadening
 B0 Field    = 127.74 MHz 
 Ref Singlet = False
  
 This data has been FFTd to be in the FREQUENCY domain
 
 $NMID ID='Pyr'
 FMTDAT='(2E16.6)'
 VOLUME=1.0
 TRAMP=1.0
 $END
    1.499892E+00    2.955644E+00
    1.499915E+00    2.966949E+00
    1.499950E+00    2.978314E+00
    1.499993E+00    2.989733E+00
    1.500037E+00    3.001207E+00
    1.500077E+00    3.012734E+00
    1.500106E+00    3.024320E+00
    1.500119E+00    3.035971E+00
    1.500116E+00    3.047692E+00
    1.500095E+00    3.059491E+00
    1.500060E+00    3.071376E+00
    1.500014E+00    3.083352E+00
    1.499965E+00    3.095426E+00
    1.499923E+00    3.107599E+00
    1.499896E+00    3.119869E+00
    1.499896E+00    3.132230E+00
    1.499929E+00    3.144669E+00
    1.499992E+00    3.157170E+00
    1.500078E+00    3.169720E+00
    1.500168E+00    3.182308E+00
    1.500241E+00    3.194936E+00
    1.500276E+00    3.207615E+00
    1.500259E+00    3.220368E+00
    1.500190E+00    3.233220E+00
    1.500081E+00    3.246198E+00
    1.499954E+00    3.259318E+00
    1.499836E+00    3.272583E+00
    1.499755E+00    3.285983E+00
    1.499727E+00    3.299497E+00
    1.499757E+00    3.313098E+00
    1.499835E+00    3.326760E+00
    1.499940E+00    3.340467E+00
    1.500047E+00    3.354213E+00
    1.500130E+00    3.368007E+00
    1.500170E+00    3.381869E+00
    1.500163E+00    3.395823E+00
    1.500113E+00    3.409893E+00
    1.500036E+00    3.424097E+00
    1.499953E+00    3.438441E+00
    1.499880E+00    3.452921E+00
    1.499832E+00    3.467529E+00
    1.499812E+00    3.482250E+00
    1.499820E+00    3.497075E+00
    1.499851E+00    3.511993E+00
    1.499897E+00    3.527001E+00
    1.499949E+00    3.542097E+00
    1.500000E+00    3.557284E+00
    1.500044E+00    3.572564E+00
    1.500076E+00    3.587943E+00
    1.500092E+00    3.603427E+00
    1.500090E+00    3.619025E+00
    1.500071E+00    3.634745E+00
    1.500040E+00    3.650595E+00
    1.500002E+00    3.666579E+00
    1.499964E+00    3.682700E+00
    1.499933E+00    3.698956E+00
    1.499912E+00    3.715345E+00
    1.499904E+00    3.731863E+00
    1.499907E+00    3.748507E+00
    1.499920E+00    3.765274E+00
    1.499940E+00    3.782164E+00
    1.499964E+00    3.799178E+00
    1.499990E+00    3.816316E+00
    1.500015E+00    3.833580E+00
    1.500036E+00    3.850972E+00
    1.500050E+00    3.868497E+00
    1.500057E+00    3.886158E+00
    1.500055E+00    3.903962E+00
    1.500046E+00    3.921914E+00
    1.500033E+00    3.940019E+00
    1.500021E+00    3.958278E+00
    1.500012E+00    3.976693E+00
    1.500010E+00    3.995262E+00
    1.500016E+00    4.013984E+00
    1.500027E+00    4.032860E+00
    1.500045E+00    4.051887E+00
    1.500067E+00    4.071068E+00
    1.500090E+00    4.090403E+00
    1.500115E+00    4.109894E+00
    1.500138E+00    4.129542E+00
    1.500157E+00    4.149350E+00
    1.500170E+00    4.169322E+00
    1.500174E+00    4.189462E+00
    1.500169E+00    4.209775E+00
    1.500156E+00    4.230268E+00
    1.500136E+00    4.250945E+00
    1.500113E+00    4.271809E+00
    1.500088E+00    4.292865E+00
    1.500065E+00    4.314113E+00
    1.500044E+00    4.335555E+00
    1.500028E+00    4.357192E+00
    1.500015E+00    4.379025E+00
    1.500007E+00    4.401054E+00
    1.500003E+00    4.423283E+00
    1.500002E+00    4.445712E+00
    1.500004E+00    4.468343E+00
    1.500006E+00    4.491179E+00
    1.500008E+00    4.514222E+00
    1.500008E+00    4.537476E+00
    1.500005E+00    4.560946E+00
    1.499998E+00    4.584637E+00
    1.499988E+00    4.608552E+00
    1.499976E+00    4.632697E+00
    1.499963E+00    4.657075E+00
    1.499951E+00    4.681689E+00
    1.499940E+00    4.706543E+00
    1.499931E+00    4.731640E+00
    1.499924E+00    4.756982E+00
    1.499920E+00    4.782572E+00
    1.499918E+00    4.808413E+00
    1.499918E+00    4.834508E+00
    1.499918E+00    4.860859E+00
    1.499916E+00    4.887472E+00
    1.499911E+00    4.914350E+00
    1.499901E+00    4.941500E+00
    1.499886E+00    4.968931E+00
    1.499867E+00    4.996651E+00
    1.499849E+00    5.024665E+00
    1.499836E+00    5.052980E+00
    1.499835E+00    5.081598E+00
    1.499850E+00    5.110518E+00
    1.499882E+00    5.139739E+00
    1.499931E+00    5.169257E+00
    1.499991E+00    5.199072E+00
    1.500054E+00    5.229185E+00
    1.500113E+00    5.259602E+00
    1.500160E+00    5.290330E+00
    1.500190E+00    5.321382E+00
    1.500201E+00    5.352769E+00
    1.500192E+00    5.384504E+00
    1.500167E+00    5.416600E+00
    1.500129E+00    5.449066E+00
    1.500084E+00    5.481910E+00
    1.500035E+00    5.515141E+00
    1.499988E+00    5.548763E+00
    1.499946E+00    5.582782E+00
    1.499912E+00    5.617202E+00
    1.499888E+00    5.652025E+00
    1.499874E+00    5.687256E+00
    1.499871E+00    5.722899E+00
    1.499876E+00    5.758957E+00
    1.499886E+00    5.795438E+00
    1.499900E+00    5.832347E+00
    1.499914E+00    5.869694E+00
    1.499927E+00    5.907488E+00
    1.499938E+00    5.945738E+00
    1.499946E+00    5.984454E+00
    1.499950E+00    6.023647E+00
    1.499951E+00    6.063327E+00
    1.499950E+00    6.103505E+00
    1.499948E+00    6.144192E+00
    1.499946E+00    6.185397E+00
    1.499947E+00    6.227130E+00
    1.499951E+00    6.269401E+00
    1.499960E+00    6.312218E+00
    1.499973E+00    6.355590E+00
    1.499989E+00    6.399526E+00
    1.500007E+00    6.444038E+00
    1.500024E+00    6.489135E+00
    1.500039E+00    6.534832E+00
    1.500050E+00    6.581141E+00
    1.500057E+00    6.628077E+00
    1.500060E+00    6.675654E+00
    1.500058E+00    6.723887E+00
    1.500051E+00    6.772791E+00
    1.500041E+00    6.822383E+00
    1.500028E+00    6.872677E+00
    1.500014E+00    6.923690E+00
    1.500002E+00    6.975438E+00
    1.499994E+00    7.027935E+00
    1.499990E+00    7.081195E+00
    1.499991E+00    7.135234E+00
    1.499997E+00    7.190067E+00
