 Vespa-Simulation Mixed Metabolite Output
 This file was generated by Vespa-Simulation. You can learn about and download Vespa here:
https://github.com/vespa-mrs/vespa/tree/main/vespa

 
 Output Path/Filename = /home/stud/casperc/bhome/Project1(DeepFit)/DeepFit-data-generation/DeepFitData_TE_20_lw10_2048p
 Output Loop Values = (1,1,1)  ( Loop 1 = 10, Loop 2 = 10, Loop3 Inactive )
 Output Comment
 ---------------------------------------------------------------------------
 
 
 Experiment Information
 ---------------------------------------------------------------------------
 --- Experiment 18b0168e-f5f0-4bd4-8d52-da93aba06c60 ---
 Name: SyntheticDataSetDeepFitTE20
 Public: False
 Created: 2024-10-08T09:55:07
 Comment (abbr.): 
 PI: Casper Cappelen
 b0: 127.740000
 Peak Search PPM low/high: -15.000000 / 15.000000
 Blend tol. PPM/phase: 0.001500 / 50.000000
 Pulse seq.: 43be13ae-de9a-40a1-9a2d-c872d8bjs100 (PRESS Ideal)
 0 User static parameters: 
 22 Metabolites: 2-hydroxyglutarate, GPC-pcholine2, NAAG-truncated, alanine, choline-trimethyl, creatine, ethanolamine, gaba, glucose-beta, glutamate, glutamine, glutathione-glutamate, glutathione-glycine-cysteine, glycine, lactate, myo-inositol, n-acetylaspartate, phosphocreatine, phosphorylcholine-trimethyl, phosphorylethanolamine, pyruvate, taurine
 22 Simulations: (not shown)
 
 Metabolite Formatting Information
 ---------------------------------------------------------------------------
 Name=2-hydroxyglutarate Abbr=2HG Scale=1.0 Shift=0.0 PPM Start=-3.1207465171441986 PPM End=12.528391440425866
 Name=GPC-pcholine2 Abbr=GPC Scale=1.0 Shift=0.0 PPM Start=-3.1207465171441986 PPM End=12.528391440425866
 Name=NAAG-truncated Abbr=NAAG Scale=1.0 Shift=0.0 PPM Start=-3.1207465171441986 PPM End=12.528391440425866
 Name=alanine Abbr=Ala Scale=1.0 Shift=0.0 PPM Start=-3.1207465171441986 PPM End=12.528391440425866
 Name=choline-trimethyl Abbr=Cho Scale=1.0 Shift=0.0 PPM Start=-3.1207465171441986 PPM End=12.528391440425866
 Name=creatine Abbr=Cr Scale=1.0 Shift=0.0 PPM Start=-3.1207465171441986 PPM End=12.528391440425866
 Name=ethanolamine Abbr=ETA Scale=1.0 Shift=0.0 PPM Start=-3.1207465171441986 PPM End=12.528391440425866
 Name=gaba Abbr=GABA Scale=1.0 Shift=0.0 PPM Start=-3.1207465171441986 PPM End=12.528391440425866
 Name=glucose-beta Abbr=Glc Scale=1.0 Shift=0.0 PPM Start=-3.1207465171441986 PPM End=12.528391440425866
 Name=glutamate Abbr=Glu Scale=1.0 Shift=0.0 PPM Start=-3.1207465171441986 PPM End=12.528391440425866
 Name=glutamine Abbr=Gln Scale=1.0 Shift=0.0 PPM Start=-3.1207465171441986 PPM End=12.528391440425866
 Name=glycine Abbr=Gly Scale=1.0 Shift=0.0 PPM Start=-3.1207465171441986 PPM End=12.528391440425866
 Name=lactate Abbr=Lac Scale=1.0 Shift=0.0 PPM Start=-3.1207465171441986 PPM End=12.528391440425866
 Name=myo-inositol Abbr=mI Scale=1.0 Shift=0.0 PPM Start=-3.1207465171441986 PPM End=12.528391440425866
 Name=n-acetylaspartate Abbr=NAA Scale=1.0 Shift=0.0 PPM Start=-3.1207465171441986 PPM End=12.528391440425866
 Name=phosphocreatine Abbr=PCr Scale=1.0 Shift=0.0 PPM Start=-3.1207465171441986 PPM End=12.528391440425866
 Name=phosphorylcholine-trimethyl Abbr=PCho Scale=1.0 Shift=0.0 PPM Start=-3.1207465171441986 PPM End=12.528391440425866
 Name=phosphorylethanolamine Abbr=PE Scale=1.0 Shift=0.0 PPM Start=-3.1207465171441986 PPM End=12.528391440425866
 Name=pyruvate Abbr=Pyr Scale=1.0 Shift=0.0 PPM Start=-3.1207465171441986 PPM End=12.528391440425866
 Name=taurine Abbr=Tau Scale=1.0 Shift=0.0 PPM Start=-3.1207465171441986 PPM End=12.528391440425866
 Name=glutathione-glutamate+glutathione-glycine-cysteine Abbr=GSH Scale=1.0 Shift=0.0 PPM Start=-3.1207565171441987 PPM End=12.528
   Mixture of [metab*scale] = glutathione-glutamate*1.000000 + glutathione-glycine-cysteine*1.000000
 
 ===========================================================================
 This LCModel format RAW file was created using the 
 Vespa-Simulation spectral simulation program using 
 the following settings and parameters 
 
 Sweep Width = 2000.0 Hz 
 Vector Size = 2048 points 
 Apodization = 10.0 Hz Gaussian broadening
 B0 Field    = 127.74 MHz 
 Ref Singlet = False
  
 $NMID ID='Tau'
 FMTDAT='(2E16.6)'
 VOLUME=1.0
 TRAMP=1.0
 $END
    3.985336E+00    4.296512E-07
    3.402696E+00    2.079133E+00
    1.817919E+00    3.545191E+00
   -2.964988E-01    3.963767E+00
   -2.310936E+00    3.215548E+00
   -3.629442E+00    1.530914E+00
   -3.869217E+00   -5.821091E-01
   -2.973710E+00   -2.493626E+00
   -1.225433E+00   -3.642932E+00
    8.442387E-01   -3.705884E+00
    2.619205E+00   -2.687793E+00
    3.585078E+00   -9.147886E-01
    3.480829E+00    1.071610E+00
    2.370023E+00    2.682362E+00
    6.120836E-01    3.458421E+00
   -1.254782E+00    3.203584E+00
   -2.680686E+00    2.033608E+00
   -3.268427E+00    3.296030E-01
   -2.885593E+00   -1.386702E+00
   -1.692018E+00   -2.614771E+00
   -7.815621E-02   -3.023163E+00
    1.462986E+00   -2.539584E+00
    2.488151E+00   -1.358213E+00
    2.732813E+00    1.335172E-01
    2.178891E+00    1.482056E+00
    1.044102E+00    2.306960E+00
   -2.990031E-01    2.409086E+00
   -1.445157E+00    1.816742E+00
   -2.079584E+00    7.599060E-01
   -2.064573E+00   -4.145164E-01
   -1.465609E+00   -1.356155E+00
   -5.137484E-01   -1.816113E+00
    4.790152E-01   -1.712055E+00
    1.221253E+00   -1.136581E+00
    1.527765E+00   -3.112975E-01
    1.363885E+00    4.939532E-01
    8.389513E-01    1.048468E+00
    1.557617E-01    1.226217E+00
   -4.632101E-01    1.031348E+00
   -8.471781E-01    5.797984E-01
   -9.230129E-01    4.775342E-02
   -7.241867E-01   -3.926251E-01
   -3.638720E-01   -6.274705E-01
    1.445844E-02   -6.289635E-01
    2.895220E-01   -4.502412E-01
    3.996244E-01   -1.934525E-01
    3.536501E-01    3.464316E-02
    2.151669E-01    1.622613E-01
    6.852827E-02    1.735022E-01
   -1.828155E-02    1.050289E-01
   -1.965064E-02    2.236246E-02
    4.190955E-02   -1.303923E-02
    1.108410E-01    2.793945E-02
    1.269955E-01    1.295666E-01
    5.515469E-02    2.389188E-01
   -9.659937E-02    2.899366E-01
   -2.771817E-01    2.337954E-01
   -4.114107E-01    6.310933E-02
   -4.302847E-01   -1.800328E-01
   -3.007290E-01   -4.159155E-01
   -4.312882E-02   -5.550266E-01
    2.707926E-01   -5.318473E-01
    5.397386E-01   -3.319356E-01
    6.672151E-01   -1.919408E-03
    5.963216E-01    3.620218E-01
    3.326186E-01    6.440621E-01
   -5.372606E-02    7.471731E-01
   -4.477769E-01    6.268520E-01
   -7.258405E-01    3.086151E-01
   -7.956942E-01   -1.173623E-01
   -6.276758E-01   -5.232725E-01
   -2.660744E-01   -7.835263E-01
    1.831762E-01   -8.149346E-01
    5.849826E-01   -6.037719E-01
    8.170227E-01   -2.109791E-01
    8.081205E-01    2.462540E-01
    5.604940E-01    6.306803E-01
    1.489081E-01    8.274703E-01
   -3.026439E-01    7.792592E-01
   -6.593987E-01    5.032141E-01
   -8.170251E-01    8.477595E-02
   -7.327828E-01   -3.495585E-01
   -4.371004E-01   -6.712501E-01
   -2.266521E-02   -7.885973E-01
    3.852729E-01   -6.732664E-01
    6.673361E-01   -3.667725E-01
    7.455740E-01    3.428532E-02
    6.051527E-01    4.090683E-01
    2.962001E-01    6.494748E-01
   -8.381661E-02    6.915582E-01
   -4.211155E-01    5.325188E-01
   -6.199880E-01    2.285812E-01
   -6.301274E-01   -1.246332E-01
   -4.589553E-01   -4.222462E-01
   -1.663029E-01   -5.814752E-01
    1.562229E-01   -5.646308E-01
    4.138607E-01   -3.873898E-01
    5.366088E-01   -1.109447E-01
    4.980360E-01    1.787487E-01
    3.200824E-01    3.976733E-01
    6.340512E-02    4.879422E-01
   -1.929082E-01    4.328182E-01
   -3.755500E-01    2.586154E-01
   -4.377909E-01    2.390988E-02
   -3.709263E-01   -1.997259E-01
   -2.039392E-01   -3.493522E-01
    7.801749E-03   -3.881175E-01
    2.004767E-01   -3.137421E-01
    3.208136E-01   -1.564406E-01
    3.404786E-01    3.236013E-02
    2.621296E-01    1.964956E-01
    1.160795E-01    2.914300E-01
   -5.064258E-02    2.960060E-01
   -1.890775E-01    2.164889E-01
   -2.624304E-01    8.244293E-02
   -2.554281E-01   -6.362019E-02
   -1.768359E-01   -1.793918E-01
   -5.489385E-02   -2.347323E-01
    7.230872E-02   -2.191038E-01
    1.684283E-01   -1.428863E-01
    2.089513E-01   -3.266402E-02
    1.870883E-01    7.765392E-02
    1.141665E-01    1.569528E-01
    1.493718E-02    1.854297E-01
   -8.048610E-02    1.592016E-01
   -1.455280E-01    9.007019E-02
   -1.642777E-01    9.397970E-04
   -1.350997E-01   -8.149300E-02
   -6.994826E-02   -1.345131E-01
    1.003773E-02   -1.454300E-01
    8.119150E-02   -1.143541E-01
    1.240892E-01   -5.318163E-02
    1.286979E-01    1.860896E-02
    9.648697E-02    7.997433E-02
    3.918310E-02    1.143171E-01
   -2.524859E-02    1.138246E-01
   -7.808448E-02    8.104757E-02
   -1.051551E-01    2.747610E-02
   -1.005322E-01   -3.031974E-02
   -6.763216E-02   -7.566721E-02
   -1.765233E-02   -9.651873E-02
    3.410165E-02   -8.855084E-02
    7.280885E-02   -5.589143E-02
    8.830096E-02   -9.413451E-03
    7.765570E-02    3.677091E-02
    4.556712E-02    6.953979E-02
    2.539683E-03    8.040652E-02
   -3.846692E-02    6.766655E-02
   -6.588775E-02    3.645660E-02
   -7.276849E-02   -3.138984E-03
   -5.846500E-02   -3.928150E-02
   -2.843372E-02   -6.187511E-02
    7.730747E-03   -6.535610E-02
    3.929499E-02   -4.998465E-02
    5.754971E-02   -2.140403E-02
    5.817576E-02    1.133464E-02
    4.219399E-02    3.859792E-02
    1.531338E-02    5.297739E-02
   -1.402918E-02    5.126746E-02
   -3.728096E-02    3.509820E-02
   -4.824829E-02    1.012027E-02
   -4.469498E-02   -1.589766E-02
   -2.870758E-02   -3.545905E-02
   -5.775074E-03   -4.347190E-02
    1.704155E-02   -3.853060E-02
    3.325446E-02   -2.303894E-02
    3.876441E-02   -2.229241E-03
    3.284907E-02    1.756560E-02
    1.809792E-02    3.079958E-02
   -5.903705E-04    3.424206E-02
   -1.759448E-02    2.770939E-02
   -2.823118E-02    1.386672E-02
   -3.000922E-02   -2.766328E-03
   -2.315411E-02   -1.725225E-02
