 Vespa-Simulation Mixed Metabolite Output
 This file was generated by Vespa-Simulation. You can learn about and download Vespa here:
https://github.com/vespa-mrs/vespa/tree/main/vespa

 
 Output Path/Filename = /home/stud/casperc/bhome/Project1(DeepFit)/DeepFit-data-generation/DeepFitData_TE_20_lw10_2048p
 Output Loop Values = (1,1,1)  ( Loop 1 = 10, Loop 2 = 10, Loop3 Inactive )
 Output Comment
 ---------------------------------------------------------------------------
 
 
 Experiment Information
 ---------------------------------------------------------------------------
 --- Experiment 18b0168e-f5f0-4bd4-8d52-da93aba06c60 ---
 Name: SyntheticDataSetDeepFitTE20
 Public: False
 Created: 2024-10-08T09:55:07
 Comment (abbr.): 
 PI: Casper Cappelen
 b0: 127.740000
 Peak Search PPM low/high: -15.000000 / 15.000000
 Blend tol. PPM/phase: 0.001500 / 50.000000
 Pulse seq.: 43be13ae-de9a-40a1-9a2d-c872d8bjs100 (PRESS Ideal)
 0 User static parameters: 
 22 Metabolites: 2-hydroxyglutarate, GPC-pcholine2, NAAG-truncated, alanine, choline-trimethyl, creatine, ethanolamine, gaba, glucose-beta, glutamate, glutamine, glutathione-glutamate, glutathione-glycine-cysteine, glycine, lactate, myo-inositol, n-acetylaspartate, phosphocreatine, phosphorylcholine-trimethyl, phosphorylethanolamine, pyruvate, taurine
 22 Simulations: (not shown)
 
 Metabolite Formatting Information
 ---------------------------------------------------------------------------
 Name=2-hydroxyglutarate Abbr=2HG Scale=1.0 Shift=0.0 PPM Start=-3.1207465171441986 PPM End=12.528391440425866
 Name=GPC-pcholine2 Abbr=GPC Scale=1.0 Shift=0.0 PPM Start=-3.1207465171441986 PPM End=12.528391440425866
 Name=NAAG-truncated Abbr=NAAG Scale=1.0 Shift=0.0 PPM Start=-3.1207465171441986 PPM End=12.528391440425866
 Name=alanine Abbr=Ala Scale=1.0 Shift=0.0 PPM Start=-3.1207465171441986 PPM End=12.528391440425866
 Name=choline-trimethyl Abbr=Cho Scale=1.0 Shift=0.0 PPM Start=-3.1207465171441986 PPM End=12.528391440425866
 Name=creatine Abbr=Cr Scale=1.0 Shift=0.0 PPM Start=-3.1207465171441986 PPM End=12.528391440425866
 Name=ethanolamine Abbr=ETA Scale=1.0 Shift=0.0 PPM Start=-3.1207465171441986 PPM End=12.528391440425866
 Name=gaba Abbr=GABA Scale=1.0 Shift=0.0 PPM Start=-3.1207465171441986 PPM End=12.528391440425866
 Name=glucose-beta Abbr=Glc Scale=1.0 Shift=0.0 PPM Start=-3.1207465171441986 PPM End=12.528391440425866
 Name=glutamate Abbr=Glu Scale=1.0 Shift=0.0 PPM Start=-3.1207465171441986 PPM End=12.528391440425866
 Name=glutamine Abbr=Gln Scale=1.0 Shift=0.0 PPM Start=-3.1207465171441986 PPM End=12.528391440425866
 Name=glycine Abbr=Gly Scale=1.0 Shift=0.0 PPM Start=-3.1207465171441986 PPM End=12.528391440425866
 Name=lactate Abbr=Lac Scale=1.0 Shift=0.0 PPM Start=-3.1207465171441986 PPM End=12.528391440425866
 Name=myo-inositol Abbr=mI Scale=1.0 Shift=0.0 PPM Start=-3.1207465171441986 PPM End=12.528391440425866
 Name=n-acetylaspartate Abbr=NAA Scale=1.0 Shift=0.0 PPM Start=-3.1207465171441986 PPM End=12.528391440425866
 Name=phosphocreatine Abbr=PCr Scale=1.0 Shift=0.0 PPM Start=-3.1207465171441986 PPM End=12.528391440425866
 Name=phosphorylcholine-trimethyl Abbr=PCho Scale=1.0 Shift=0.0 PPM Start=-3.1207465171441986 PPM End=12.528391440425866
 Name=phosphorylethanolamine Abbr=PE Scale=1.0 Shift=0.0 PPM Start=-3.1207465171441986 PPM End=12.528391440425866
 Name=pyruvate Abbr=Pyr Scale=1.0 Shift=0.0 PPM Start=-3.1207465171441986 PPM End=12.528391440425866
 Name=taurine Abbr=Tau Scale=1.0 Shift=0.0 PPM Start=-3.1207465171441986 PPM End=12.528391440425866
 Name=glutathione-glutamate+glutathione-glycine-cysteine Abbr=GSH Scale=1.0 Shift=0.0 PPM Start=-3.1207565171441987 PPM End=12.528
   Mixture of [metab*scale] = glutathione-glutamate*1.000000 + glutathione-glycine-cysteine*1.000000
 
 ===========================================================================
 This LCModel format RAW file was created using the 
 Vespa-Simulation spectral simulation program using 
 the following settings and parameters 
 
 Sweep Width = 2000.0 Hz 
 Vector Size = 2048 points 
 Apodization = 10.0 Hz Gaussian broadening
 B0 Field    = 127.74 MHz 
 Ref Singlet = False
  
 This data has been FFTd to be in the FREQUENCY domain
 
 $NMID ID='Tau'
 FMTDAT='(2E16.6)'
 VOLUME=1.0
 TRAMP=1.0
 $END
    1.974807E+00    7.118391E+00
    1.974610E+00    7.160919E+00
    1.974414E+00    7.203922E+00
    1.974219E+00    7.247407E+00
    1.974023E+00    7.291382E+00
    1.973825E+00    7.335856E+00
    1.973625E+00    7.380836E+00
    1.973421E+00    7.426332E+00
    1.973212E+00    7.472353E+00
    1.972997E+00    7.518909E+00
    1.972774E+00    7.566012E+00
    1.972544E+00    7.613672E+00
    1.972306E+00    7.661901E+00
    1.972061E+00    7.710710E+00
    1.971810E+00    7.760111E+00
    1.971553E+00    7.810114E+00
    1.971290E+00    7.860732E+00
    1.971023E+00    7.911976E+00
    1.970752E+00    7.963857E+00
    1.970475E+00    8.016387E+00
    1.970195E+00    8.069579E+00
    1.969910E+00    8.123445E+00
    1.969621E+00    8.177998E+00
    1.969328E+00    8.233252E+00
    1.969029E+00    8.289219E+00
    1.968725E+00    8.345914E+00
    1.968415E+00    8.403351E+00
    1.968098E+00    8.461547E+00
    1.967775E+00    8.520517E+00
    1.967445E+00    8.580278E+00
    1.967109E+00    8.640844E+00
    1.966767E+00    8.702235E+00
    1.966418E+00    8.764465E+00
    1.966063E+00    8.827554E+00
    1.965701E+00    8.891518E+00
    1.965331E+00    8.956378E+00
    1.964955E+00    9.022151E+00
    1.964571E+00    9.088859E+00
    1.964179E+00    9.156520E+00
    1.963779E+00    9.225156E+00
    1.963370E+00    9.294789E+00
    1.962950E+00    9.365441E+00
    1.962520E+00    9.437136E+00
    1.962078E+00    9.509898E+00
    1.961625E+00    9.583752E+00
    1.961160E+00    9.658725E+00
    1.960684E+00    9.734841E+00
    1.960196E+00    9.812130E+00
    1.959697E+00    9.890617E+00
    1.959186E+00    9.970333E+00
    1.958663E+00    1.005131E+01
    1.958127E+00    1.013357E+01
    1.957579E+00    1.021715E+01
    1.957018E+00    1.030208E+01
    1.956444E+00    1.038840E+01
    1.955857E+00    1.047614E+01
    1.955254E+00    1.056533E+01
    1.954636E+00    1.065602E+01
    1.954001E+00    1.074825E+01
    1.953349E+00    1.084204E+01
    1.952679E+00    1.093745E+01
    1.951990E+00    1.103452E+01
    1.951284E+00    1.113330E+01
    1.950559E+00    1.123382E+01
    1.949815E+00    1.133614E+01
    1.949052E+00    1.144031E+01
    1.948270E+00    1.154638E+01
    1.947466E+00    1.165439E+01
    1.946641E+00    1.176442E+01
    1.945794E+00    1.187651E+01
    1.944923E+00    1.199072E+01
    1.944027E+00    1.210712E+01
    1.943105E+00    1.222577E+01
    1.942156E+00    1.234675E+01
    1.941178E+00    1.247011E+01
    1.940170E+00    1.259593E+01
    1.939129E+00    1.272429E+01
    1.938057E+00    1.285528E+01
    1.936951E+00    1.298896E+01
    1.935812E+00    1.312544E+01
    1.934637E+00    1.326480E+01
    1.933427E+00    1.340713E+01
    1.932179E+00    1.355254E+01
    1.930891E+00    1.370111E+01
    1.929561E+00    1.385297E+01
    1.928187E+00    1.400823E+01
    1.926766E+00    1.416700E+01
    1.925295E+00    1.432940E+01
    1.923773E+00    1.449558E+01
    1.922198E+00    1.466565E+01
    1.920567E+00    1.483978E+01
    1.918880E+00    1.501810E+01
    1.917132E+00    1.520078E+01
    1.915321E+00    1.538798E+01
    1.913445E+00    1.557988E+01
    1.911498E+00    1.577665E+01
    1.909478E+00    1.597850E+01
    1.907380E+00    1.618562E+01
    1.905200E+00    1.639824E+01
    1.902933E+00    1.661658E+01
    1.900575E+00    1.684088E+01
    1.898122E+00    1.707141E+01
    1.895567E+00    1.730842E+01
    1.892905E+00    1.755222E+01
    1.890130E+00    1.780310E+01
    1.887236E+00    1.806138E+01
    1.884216E+00    1.832742E+01
    1.881061E+00    1.860158E+01
    1.877764E+00    1.888424E+01
    1.874315E+00    1.917584E+01
    1.870705E+00    1.947681E+01
    1.866923E+00    1.978764E+01
    1.862957E+00    2.010884E+01
    1.858795E+00    2.044095E+01
    1.854425E+00    2.078457E+01
    1.849830E+00    2.114033E+01
    1.844996E+00    2.150893E+01
    1.839906E+00    2.189111E+01
    1.834540E+00    2.228766E+01
    1.828878E+00    2.269945E+01
    1.822897E+00    2.312744E+01
    1.816572E+00    2.357265E+01
    1.809875E+00    2.403620E+01
    1.802775E+00    2.451932E+01
    1.795237E+00    2.502337E+01
    1.787221E+00    2.554981E+01
    1.778685E+00    2.610030E+01
    1.769580E+00    2.667663E+01
    1.759851E+00    2.728082E+01
    1.749437E+00    2.791513E+01
    1.738269E+00    2.858206E+01
    1.726274E+00    2.928444E+01
    1.713375E+00    3.002551E+01
    1.699500E+00    3.080889E+01
    1.684590E+00    3.163879E+01
    1.668612E+00    3.252001E+01
    1.651572E+00    3.345811E+01
    1.633531E+00    3.445955E+01
    1.614603E+00    3.553193E+01
    1.594970E+00    3.668427E+01
    1.574926E+00    3.792748E+01
    1.555035E+00    3.927512E+01
    1.536567E+00    4.074431E+01
    1.522460E+00    4.235705E+01
    1.519144E+00    4.414159E+01
    1.539573E+00    4.613359E+01
    1.607698E+00    4.837620E+01
    1.764156E+00    5.091817E+01
    2.072318E+00    5.380880E+01
    2.622903E+00    5.708886E+01
    3.534664E+00    6.077814E+01
    4.948676E+00    6.486130E+01
    7.015019E+00    6.927619E+01
    9.873364E+00    7.390918E+01
    1.363224E+01    7.860107E+01
    1.835398E+01    8.316349E+01
    2.405167E+01    8.740026E+01
    3.069929E+01    9.112450E+01
    3.824917E+01    9.416240E+01
    4.664436E+01    9.634058E+01
    5.581324E+01    9.746475E+01
    6.564169E+01    9.730590E+01
    7.593231E+01    9.561173E+01
    8.637189E+01    9.215042E+01
    9.653070E+01    8.677623E+01
    1.059042E+02    7.949076E+01
    1.139865E+02    7.047124E+01
    1.203456E+02    6.005231E+01
    1.246695E+02    4.867286E+01
    1.267700E+02    3.681939E+01
    1.265582E+02    2.499767E+01
    1.240263E+02    1.374250E+01
    1.192702E+02    3.643864E+00
