jMRUI Data Textfile
 
Filename: 2HG.txt
 
PointsInDataset: 2048
DatasetsInFile: 1
SamplingInterval: 5.00000E-01
ZeroOrderPhase: 0E0
BeginTime: 0E0
TransmitterFrequency: 1.27740E+08
MagneticField: 0E0
TypeOfNucleus: 0E0
NameOfPatient: 
DateOfExperiment: 
Spectrometer: Vespa-Simulation
AdditionalInfo: see 'readme' file for Vespa-Simulation output synopsis
 
  
Signal and FFT 
sig(real)	sig(imag)	fft(real)	fft(imag)
Signal 1 out of 1 in file
1.60548E+00	-3.51023E-01	6.22451E-01	-3.05162E+00
7.50732E-01	-1.23701E+00	6.20496E-01	-3.02662E+00
-3.59862E-01	-1.03413E+00	6.18641E-01	-3.00210E+00
-6.98168E-01	-9.31990E-02	6.16893E-01	-2.97805E+00
-6.64431E-02	5.51652E-01	6.15254E-01	-2.95445E+00
7.59107E-01	2.44770E-01	6.13706E-01	-2.93132E+00
8.61568E-01	-6.69497E-01	6.12229E-01	-2.90863E+00
9.72167E-02	-1.25883E+00	6.10812E-01	-2.88636E+00
-8.24745E-01	-9.60727E-01	6.09460E-01	-2.86449E+00
-1.10314E+00	-9.22547E-02	6.08182E-01	-2.84300E+00
-6.16847E-01	5.44876E-01	6.06974E-01	-2.82188E+00
4.61397E-02	4.79226E-01	6.05843E-01	-2.80112E+00
2.40222E-01	-3.60667E-02	6.04785E-01	-2.78074E+00
-1.24310E-01	-3.72879E-01	6.03789E-01	-2.76072E+00
-5.87350E-01	-1.78336E-01	6.02837E-01	-2.74105E+00
-6.61098E-01	3.40348E-01	6.01924E-01	-2.72170E+00
-2.87150E-01	7.03697E-01	6.01054E-01	-2.70267E+00
1.88452E-01	6.46151E-01	6.00241E-01	-2.68392E+00
4.04829E-01	3.09510E-01	5.99493E-01	-2.66548E+00
3.04647E-01	2.68077E-02	5.98800E-01	-2.64735E+00
1.06667E-01	-1.32412E-02	5.98145E-01	-2.62952E+00
4.16531E-02	1.11357E-01	5.97527E-01	-2.61196E+00
1.50212E-01	2.00395E-01	5.96946E-01	-2.59468E+00
3.04375E-01	1.39628E-01	5.96407E-01	-2.57766E+00
3.66351E-01	-2.89925E-02	5.95904E-01	-2.56090E+00
3.02807E-01	-1.90646E-01	5.95436E-01	-2.54439E+00
1.73738E-01	-2.69739E-01	5.95004E-01	-2.52812E+00
5.37040E-02	-2.67139E-01	5.94613E-01	-2.51209E+00
-2.25488E-02	-2.24873E-01	5.94263E-01	-2.49630E+00
-5.99170E-02	-1.80314E-01	5.93939E-01	-2.48075E+00
-7.80427E-02	-1.49088E-01	5.93631E-01	-2.46543E+00
-9.39781E-02	-1.30312E-01	5.93348E-01	-2.45032E+00
-1.16942E-01	-1.14828E-01	5.93088E-01	-2.43542E+00
-1.46882E-01	-9.10623E-02	5.92853E-01	-2.42071E+00
-1.75304E-01	-5.11959E-02	5.92656E-01	-2.40620E+00
-1.90358E-01	4.50706E-03	5.92497E-01	-2.39189E+00
-1.82504E-01	6.86541E-02	5.92369E-01	-2.37779E+00
-1.46395E-01	1.29328E-01	5.92259E-01	-2.36388E+00
-8.27958E-02	1.70023E-01	5.92169E-01	-2.35017E+00
-5.38157E-03	1.72625E-01	5.92089E-01	-2.33665E+00
5.59777E-02	1.31624E-01	5.92021E-01	-2.32330E+00
7.10498E-02	7.04849E-02	5.91968E-01	-2.31011E+00
4.00968E-02	3.49689E-02	5.91937E-01	-2.29709E+00
7.04582E-03	5.45791E-02	5.91922E-01	-2.28424E+00
2.69670E-02	1.04611E-01	5.91920E-01	-2.27154E+00
1.07887E-01	1.16803E-01	5.91942E-01	-2.25900E+00
1.87876E-01	4.35446E-02	5.91983E-01	-2.24662E+00
1.84891E-01	-8.36103E-02	5.92031E-01	-2.23439E+00
8.04633E-02	-1.69331E-01	5.92099E-01	-2.22229E+00
-4.90808E-02	-1.41760E-01	5.92202E-01	-2.21034E+00
-9.66337E-02	-2.85308E-02	5.92333E-01	-2.19855E+00
-2.78006E-02	6.10222E-02	5.92466E-01	-2.18692E+00
8.03450E-02	3.83826E-02	5.92588E-01	-2.17543E+00
1.09992E-01	-7.59388E-02	5.92725E-01	-2.16407E+00
1.70005E-02	-1.68499E-01	5.92857E-01	-2.15285E+00
-1.23528E-01	-1.40768E-01	5.92974E-01	-2.14172E+00
-1.86390E-01	-4.54811E-03	5.93130E-01	-2.13069E+00
-1.13760E-01	1.27127E-01	5.93340E-01	-2.11979E+00
3.07848E-02	1.44065E-01	5.93563E-01	-2.10904E+00
1.20890E-01	3.91667E-02	5.93781E-01	-2.09842E+00
8.20114E-02	-8.68801E-02	5.94026E-01	-2.08791E+00
-4.30921E-02	-1.17844E-01	5.94284E-01	-2.07755E+00
-1.34825E-01	-2.59883E-02	5.94511E-01	-2.06731E+00
-1.04673E-01	1.04169E-01	5.94720E-01	-2.05716E+00
2.53529E-02	1.51763E-01	5.94964E-01	-2.04708E+00
1.41173E-01	6.79777E-02	5.95235E-01	-2.03714E+00
1.37497E-01	-7.82440E-02	5.95491E-01	-2.02731E+00
1.33560E-02	-1.58980E-01	5.95751E-01	-2.01756E+00
-1.23435E-01	-1.01559E-01	5.96037E-01	-2.00792E+00
-1.51097E-01	4.30579E-02	5.96326E-01	-1.99838E+00
-4.57840E-02	1.43139E-01	5.96606E-01	-1.98894E+00
9.29532E-02	1.06411E-01	5.96899E-01	-1.97958E+00
1.32104E-01	-3.14966E-02	5.97210E-01	-1.97032E+00
3.10241E-02	-1.36763E-01	5.97523E-01	-1.96115E+00
-1.16274E-01	-1.02681E-01	5.97857E-01	-1.95206E+00
-1.67299E-01	4.63741E-02	5.98206E-01	-1.94309E+00
-6.71578E-02	1.74460E-01	5.98548E-01	-1.93421E+00
9.65494E-02	1.62242E-01	5.98891E-01	-1.92541E+00
1.75608E-01	2.15966E-02	5.99236E-01	-1.91671E+00
1.02573E-01	-1.15154E-01	5.99578E-01	-1.90809E+00
-4.52281E-02	-1.22122E-01	5.99913E-01	-1.89954E+00
-1.21141E-01	-7.98500E-06	6.00267E-01	-1.89105E+00
-5.02574E-02	1.26343E-01	6.00651E-01	-1.88266E+00
1.00173E-01	1.28863E-01	6.01016E-01	-1.87438E+00
1.86749E-01	-2.19077E-03	6.01363E-01	-1.86614E+00
1.26008E-01	-1.51172E-01	6.01740E-01	-1.85797E+00
-2.94183E-02	-1.87253E-01	6.02120E-01	-1.84991E+00
-1.43060E-01	-8.48637E-02	6.02463E-01	-1.84191E+00
-1.21514E-01	5.68492E-02	6.02827E-01	-1.83393E+00
3.01954E-03	1.08310E-01	6.03241E-01	-1.82604E+00
1.06419E-01	2.71202E-02	6.03641E-01	-1.81825E+00
8.68434E-02	-1.06667E-01	6.04034E-01	-1.81052E+00
-4.46942E-02	-1.64706E-01	6.04443E-01	-1.80285E+00
-1.75114E-01	-8.49652E-02	6.04860E-01	-1.79527E+00
-1.89000E-01	7.32057E-02	6.05265E-01	-1.78776E+00
-7.01264E-02	1.79805E-01	6.05653E-01	-1.78031E+00
8.22341E-02	1.46941E-01	6.06055E-01	-1.77290E+00
1.37681E-01	7.64455E-03	6.06486E-01	-1.76556E+00
4.99090E-02	-1.09134E-01	6.06904E-01	-1.75831E+00
-9.73479E-02	-9.08086E-02	6.07307E-01	-1.75112E+00
-1.59731E-01	5.41806E-02	6.07707E-01	-1.74397E+00
-6.29188E-02	1.95741E-01	6.08116E-01	-1.73687E+00
1.21744E-01	1.95500E-01	6.08533E-01	-1.72984E+00
2.33361E-01	3.75119E-02	6.08941E-01	-1.72287E+00
1.67718E-01	-1.47238E-01	6.09349E-01	-1.71593E+00
-1.95765E-02	-1.95570E-01	6.09784E-01	-1.70905E+00
-1.56890E-01	-6.58750E-02	6.10227E-01	-1.70225E+00
-1.14990E-01	1.16264E-01	6.10646E-01	-1.69550E+00
6.74097E-02	1.71625E-01	6.11069E-01	-1.68878E+00
2.15017E-01	3.73251E-02	6.11537E-01	-1.68212E+00
1.79583E-01	-1.69765E-01	6.11993E-01	-1.67556E+00
-1.88625E-02	-2.59898E-01	6.12402E-01	-1.66904E+00
-2.08491E-01	-1.47507E-01	6.12829E-01	-1.66252E+00
-2.24235E-01	6.91983E-02	6.13305E-01	-1.65609E+00
-5.84925E-02	1.99204E-01	6.13728E-01	-1.64975E+00
1.34447E-01	1.32312E-01	6.14120E-01	-1.64339E+00
1.79229E-01	-6.42252E-02	6.14565E-01	-1.63706E+00
3.46093E-02	-2.08704E-01	6.15033E-01	-1.63082E+00
-1.72591E-01	-1.65539E-01	6.15471E-01	-1.62465E+00
-2.58388E-01	3.75444E-02	6.15881E-01	-1.61849E+00
-1.39536E-01	2.32267E-01	6.16326E-01	-1.61236E+00
9.28987E-02	2.50999E-01	6.16791E-01	-1.60629E+00
2.45004E-01	7.08185E-02	6.17242E-01	-1.60029E+00
1.82453E-01	-1.58456E-01	6.17648E-01	-1.59432E+00
-4.67995E-02	-2.33685E-01	6.18108E-01	-1.58833E+00
-2.39633E-01	-7.63328E-02	6.18608E-01	-1.58246E+00
-2.08782E-01	1.82881E-01	6.19039E-01	-1.57665E+00
3.97028E-02	3.03769E-01	6.19468E-01	-1.57083E+00
2.90265E-01	1.53665E-01	6.19942E-01	-1.56505E+00
3.02878E-01	-1.51804E-01	6.20422E-01	-1.55936E+00
4.53463E-02	-3.34886E-01	6.20840E-01	-1.55371E+00
-2.53882E-01	-2.13153E-01	6.21261E-01	-1.54804E+00
-3.08563E-01	1.10757E-01	6.21739E-01	-1.54243E+00
-5.52123E-02	3.28650E-01	6.22196E-01	-1.53690E+00
2.68228E-01	2.20693E-01	6.22614E-01	-1.53138E+00
3.43426E-01	-1.19482E-01	6.23059E-01	-1.52587E+00
8.67487E-02	-3.64267E-01	6.23515E-01	-1.52043E+00
-2.59171E-01	-2.71757E-01	6.23945E-01	-1.51503E+00
-3.60393E-01	7.13119E-02	6.24364E-01	-1.50963E+00
-1.22259E-01	3.32882E-01	6.24811E-01	-1.50425E+00
2.18323E-01	2.64777E-01	6.25282E-01	-1.49891E+00
3.31903E-01	-5.52784E-02	6.25768E-01	-1.49363E+00
1.20945E-01	-3.10442E-01	6.26250E-01	-1.48840E+00
-1.96901E-01	-2.63061E-01	6.26728E-01	-1.48321E+00
-3.17635E-01	2.21197E-02	6.27201E-01	-1.47808E+00
-1.46662E-01	2.63299E-01	6.27646E-01	-1.47300E+00
1.32242E-01	2.46804E-01	6.28051E-01	-1.46793E+00
2.58328E-01	1.73147E-02	6.28452E-01	-1.46285E+00
1.41221E-01	-1.96745E-01	6.28882E-01	-1.45778E+00
-8.45590E-02	-2.14549E-01	6.29339E-01	-1.45275E+00
-2.15523E-01	-5.11870E-02	6.29802E-01	-1.44776E+00
-1.63239E-01	1.34142E-01	6.30264E-01	-1.44282E+00
1.11932E-03	1.97967E-01	6.30718E-01	-1.43791E+00
1.40440E-01	1.16147E-01	6.31160E-01	-1.43304E+00
1.63900E-01	-3.19567E-02	6.31599E-01	-1.42818E+00
6.98386E-02	-1.40011E-01	6.32047E-01	-1.42335E+00
-7.30016E-02	-1.37014E-01	6.32506E-01	-1.41854E+00
-1.64897E-01	-1.94017E-02	6.32970E-01	-1.41377E+00
-1.26814E-01	1.37804E-01	6.33437E-01	-1.40904E+00
3.63866E-02	2.10364E-01	6.33901E-01	-1.40435E+00
2.08624E-01	1.13992E-01	6.34351E-01	-1.39971E+00
2.33589E-01	-1.00041E-01	6.34779E-01	-1.39508E+00
6.00344E-02	-2.52880E-01	6.35204E-01	-1.39045E+00
-1.75808E-01	-1.88294E-01	6.35637E-01	-1.38585E+00
-2.49061E-01	5.78210E-02	6.36084E-01	-1.38127E+00
-6.60116E-02	2.56800E-01	6.36542E-01	-1.37672E+00
2.14267E-01	1.96254E-01	6.36997E-01	-1.37221E+00
3.11236E-01	-9.31110E-02	6.37443E-01	-1.36774E+00
1.03161E-01	-3.39785E-01	6.37880E-01	-1.36329E+00
-2.29096E-01	-2.90948E-01	6.38307E-01	-1.35886E+00
-3.65144E-01	2.31194E-02	6.38726E-01	-1.35444E+00
-1.67093E-01	3.02315E-01	6.39155E-01	-1.35002E+00
1.70452E-01	2.72422E-01	6.39606E-01	-1.34563E+00
3.09019E-01	-3.38799E-02	6.40078E-01	-1.34126E+00
1.08059E-01	-3.04913E-01	6.40564E-01	-1.33695E+00
-2.31617E-01	-2.63636E-01	6.41046E-01	-1.33269E+00
-3.71283E-01	5.38742E-02	6.41507E-01	-1.32847E+00
-1.74332E-01	3.39386E-01	6.41934E-01	-1.32428E+00
1.64469E-01	3.24710E-01	6.42333E-01	-1.32009E+00
3.23272E-01	4.24433E-02	6.42724E-01	-1.31589E+00
1.72180E-01	-2.22060E-01	6.43133E-01	-1.31169E+00
-1.14565E-01	-2.22083E-01	6.43576E-01	-1.30750E+00
-2.48459E-01	1.78441E-02	6.44042E-01	-1.30336E+00
-1.09659E-01	2.48445E-01	6.44502E-01	-1.29927E+00
1.56515E-01	2.50317E-01	6.44929E-01	-1.29522E+00
3.01074E-01	3.35638E-02	6.45333E-01	-1.29116E+00
2.09218E-01	-1.97340E-01	6.45750E-01	-1.28709E+00
-1.41529E-02	-2.50072E-01	6.46193E-01	-1.28304E+00
-1.66288E-01	-1.10895E-01	6.46651E-01	-1.27903E+00
-1.35009E-01	7.00136E-02	6.47106E-01	-1.27505E+00
2.08987E-02	1.30390E-01	6.47570E-01	-1.27109E+00
