jMRUI Data Textfile
 
Filename: GABA.txt
 
PointsInDataset: 2048
DatasetsInFile: 1
SamplingInterval: 5.00000E-01
ZeroOrderPhase: 0E0
BeginTime: 0E0
TransmitterFrequency: 1.27740E+08
MagneticField: 0E0
TypeOfNucleus: 0E0
NameOfPatient: 
DateOfExperiment: 
Spectrometer: Vespa-Simulation
AdditionalInfo: see 'readme' file for Vespa-Simulation output synopsis
 
  
Signal and FFT 
sig(real)	sig(imag)	fft(real)	fft(imag)
Signal 1 out of 1 in file
1.58517E+00	-5.54456E-01	3.18319E-01	-2.10782E+00
5.51938E-01	-1.45451E+00	3.19962E-01	-2.09980E+00
-6.77779E-01	-1.21186E+00	3.21604E-01	-2.09191E+00
-1.16699E+00	-2.21716E-01	3.23185E-01	-2.08411E+00
-7.46912E-01	6.10861E-01	3.24688E-01	-2.07636E+00
-8.49635E-03	7.31060E-01	3.26165E-01	-2.06861E+00
3.78424E-01	3.23166E-01	3.27657E-01	-2.06087E+00
2.70266E-01	-4.89379E-02	3.29170E-01	-2.05318E+00
2.72550E-02	-6.60832E-02	3.30698E-01	-2.04555E+00
1.63396E-02	1.07912E-01	3.32244E-01	-2.03797E+00
2.25592E-01	1.23484E-01	3.33807E-01	-2.03046E+00
3.50208E-01	-1.30135E-01	3.35367E-01	-2.02305E+00
1.69223E-01	-4.26156E-01	3.36890E-01	-2.01572E+00
-2.20840E-01	-4.64723E-01	3.38368E-01	-2.00844E+00
-5.18237E-01	-1.72332E-01	3.39824E-01	-2.00117E+00
-4.98829E-01	2.52903E-01	3.41297E-01	-1.99392E+00
-1.79683E-01	5.30887E-01	3.42800E-01	-1.98674E+00
2.35292E-01	5.03573E-01	3.44304E-01	-1.97963E+00
5.11545E-01	2.01774E-01	3.45779E-01	-1.97259E+00
5.04813E-01	-2.04736E-01	3.47234E-01	-1.96559E+00
2.16605E-01	-4.94439E-01	3.48684E-01	-1.95864E+00
-1.96541E-01	-4.94923E-01	3.50121E-01	-1.95173E+00
-4.82615E-01	-1.92440E-01	3.51537E-01	-1.94486E+00
-4.46508E-01	2.20438E-01	3.52957E-01	-1.93801E+00
-1.14262E-01	4.51576E-01	3.54412E-01	-1.93120E+00
2.54418E-01	3.37606E-01	3.55884E-01	-1.92447E+00
3.70043E-01	-1.49480E-03	3.57331E-01	-1.91782E+00
1.72837E-01	-2.58431E-01	3.58737E-01	-1.91123E+00
-1.11698E-01	-2.24642E-01	3.60117E-01	-1.90466E+00
-1.99053E-01	1.15352E-02	3.61487E-01	-1.89812E+00
-3.42062E-02	1.67337E-01	3.62843E-01	-1.89160E+00
1.61136E-01	7.09324E-02	3.64202E-01	-1.88510E+00
1.38651E-01	-1.54040E-01	3.65605E-01	-1.87862E+00
-9.65541E-02	-2.27979E-01	3.67041E-01	-1.87222E+00
-2.84112E-01	-3.11349E-02	3.68459E-01	-1.86592E+00
-1.93039E-01	2.50634E-01	3.69835E-01	-1.85966E+00
1.15528E-01	3.16387E-01	3.71186E-01	-1.85344E+00
3.38347E-01	7.55489E-02	3.72514E-01	-1.84725E+00
2.45581E-01	-2.44672E-01	3.73828E-01	-1.84107E+00
-7.50667E-02	-3.29943E-01	3.75154E-01	-1.83489E+00
-3.07117E-01	-1.03251E-01	3.76522E-01	-1.82875E+00
-2.31465E-01	2.00194E-01	3.77920E-01	-1.82269E+00
5.56789E-02	2.81380E-01	3.79300E-01	-1.81673E+00
2.55775E-01	8.13441E-02	3.80620E-01	-1.81083E+00
1.80802E-01	-1.75430E-01	3.81883E-01	-1.80495E+00
-6.64033E-02	-2.28225E-01	3.83107E-01	-1.79906E+00
-2.20492E-01	-4.55823E-02	3.84320E-01	-1.79315E+00
-1.36404E-01	1.64021E-01	3.85575E-01	-1.78720E+00
7.54577E-02	1.86543E-01	3.86921E-01	-1.78128E+00
1.87168E-01	2.02939E-02	3.88338E-01	-1.77547E+00
9.77331E-02	-1.44529E-01	3.89723E-01	-1.76979E+00
-7.72499E-02	-1.40727E-01	3.91051E-01	-1.76413E+00
-1.47556E-01	6.78595E-03	3.92409E-01	-1.75852E+00
-5.23923E-02	1.27163E-01	3.93752E-01	-1.75303E+00
8.99984E-02	9.55919E-02	3.94981E-01	-1.74762E+00
1.22572E-01	-4.15334E-02	3.96075E-01	-1.74219E+00
1.61309E-02	-1.30185E-01	3.97130E-01	-1.73665E+00
-1.10998E-01	-7.68631E-02	3.98258E-01	-1.73104E+00
-1.25418E-01	6.03140E-02	3.99472E-01	-1.72545E+00
-1.41494E-02	1.41494E-01	4.00707E-01	-1.71991E+00
1.11918E-01	8.92730E-02	4.01991E-01	-1.71437E+00
1.35121E-01	-4.22974E-02	4.03388E-01	-1.70889E+00
4.14979E-02	-1.30997E-01	4.04835E-01	-1.70358E+00
-7.83185E-02	-1.04860E-01	4.06200E-01	-1.69844E+00
-1.22422E-01	1.19090E-03	4.07434E-01	-1.69334E+00
-6.62114E-02	9.10926E-02	4.08596E-01	-1.68823E+00
3.01952E-02	9.74522E-02	4.09735E-01	-1.68311E+00
8.59374E-02	3.05658E-02	4.10825E-01	-1.67801E+00
6.70030E-02	-4.48950E-02	4.11873E-01	-1.67285E+00
2.84578E-03	-7.06574E-02	4.12969E-01	-1.66762E+00
-4.88195E-02	-3.76406E-02	4.14166E-01	-1.66240E+00
-5.09000E-02	1.67819E-02	4.15411E-01	-1.65728E+00
-1.14314E-02	4.52273E-02	4.16644E-01	-1.65222E+00
2.92318E-02	2.85931E-02	4.17897E-01	-1.64721E+00
3.46459E-02	-1.14454E-02	4.19118E-01	-1.64230E+00
3.46704E-03	-3.36240E-02	4.20259E-01	-1.63740E+00
-2.96899E-02	-1.53816E-02	4.21401E-01	-1.63248E+00
-2.68479E-02	2.40582E-02	4.22554E-01	-1.62758E+00
1.39351E-02	3.96032E-02	4.23716E-01	-1.62271E+00
5.08403E-02	5.54236E-03	4.24887E-01	-1.61787E+00
3.62452E-02	-5.17433E-02	4.26048E-01	-1.61307E+00
-3.10475E-02	-7.11694E-02	4.27205E-01	-1.60831E+00
-9.26694E-02	-1.61475E-02	4.28345E-01	-1.60358E+00
-7.89534E-02	7.92551E-02	4.29450E-01	-1.59888E+00
2.01986E-02	1.28847E-01	4.30536E-01	-1.59418E+00
1.31286E-01	7.04724E-02	4.31631E-01	-1.58948E+00
1.52554E-01	-6.75886E-02	4.32745E-01	-1.58479E+00
4.61010E-02	-1.77289E-01	4.33866E-01	-1.58015E+00
-1.17263E-01	-1.58549E-01	4.34975E-01	-1.57553E+00
-2.07889E-01	-1.01965E-02	4.36079E-01	-1.57093E+00
-1.45024E-01	1.59086E-01	4.37205E-01	-1.56635E+00
3.01946E-02	2.15814E-01	4.38318E-01	-1.56183E+00
1.83286E-01	1.13293E-01	4.39398E-01	-1.55732E+00
1.96398E-01	-6.67038E-02	4.40502E-01	-1.55279E+00
6.72280E-02	-1.81279E-01	4.41631E-01	-1.54833E+00
-9.00973E-02	-1.47746E-01	4.42736E-01	-1.54391E+00
-1.46092E-01	-1.34720E-02	4.43821E-01	-1.53951E+00
-7.16729E-02	9.04051E-02	4.44910E-01	-1.53514E+00
3.77406E-02	7.36721E-02	4.45978E-01	-1.53081E+00
5.78941E-02	-2.43808E-02	4.46996E-01	-1.52649E+00
-3.43300E-02	-7.26148E-02	4.47993E-01	-1.52215E+00
-1.25823E-01	1.38542E-02	4.49019E-01	-1.51778E+00
-7.62350E-02	1.67282E-01	4.50105E-01	-1.51344E+00
1.23226E-01	2.11813E-01	4.51198E-01	-1.50917E+00
3.04154E-01	3.79370E-02	4.52248E-01	-1.50494E+00
2.60062E-01	-2.56438E-01	4.53298E-01	-1.50069E+00
-4.20782E-02	-4.16290E-01	4.54388E-01	-1.49648E+00
-3.87046E-01	-2.54785E-01	4.55457E-01	-1.49235E+00
-4.75023E-01	1.48375E-01	4.56459E-01	-1.48823E+00
-1.94787E-01	4.81141E-01	4.57442E-01	-1.48408E+00
2.51307E-01	4.61977E-01	4.58474E-01	-1.47992E+00
5.07746E-01	9.73066E-02	4.59527E-01	-1.47583E+00
3.77674E-01	-3.15025E-01	4.60530E-01	-1.47177E+00
-5.23610E-03	-4.50593E-01	4.61516E-01	-1.46768E+00
-3.09968E-01	-2.43955E-01	4.62567E-01	-1.46360E+00
-3.16153E-01	7.59883E-02	4.63625E-01	-1.45962E+00
-9.76673E-02	2.25231E-01	4.64594E-01	-1.45567E+00
8.77797E-02	1.33353E-01	4.65540E-01	-1.45165E+00
7.46273E-02	-2.26217E-02	4.66586E-01	-1.44764E+00
-5.60693E-02	-3.48363E-02	4.67599E-01	-1.44376E+00
-9.17001E-02	1.07057E-01	4.68526E-01	-1.43982E+00
6.40540E-02	2.13186E-01	4.69537E-01	-1.43585E+00
2.77082E-01	1.07626E-01	4.70580E-01	-1.43197E+00
3.16739E-01	-1.73161E-01	4.71563E-01	-1.42815E+00
9.12217E-02	-4.01717E-01	4.72500E-01	-1.42432E+00
-2.55555E-01	-3.70029E-01	4.73440E-01	-1.42043E+00
-4.69309E-01	-7.45481E-02	4.74464E-01	-1.41658E+00
-3.95885E-01	2.89957E-01	4.75448E-01	-1.41284E+00
-8.34694E-02	4.92665E-01	4.76344E-01	-1.40905E+00
2.80062E-01	4.21586E-01	4.77333E-01	-1.40522E+00
4.98873E-01	1.22751E-01	4.78348E-01	-1.40150E+00
4.60745E-01	-2.51231E-01	4.79279E-01	-1.39781E+00
1.71843E-01	-5.11018E-01	4.80185E-01	-1.39408E+00
-2.34763E-01	-5.02048E-01	4.81146E-01	-1.39034E+00
-5.30955E-01	-1.95103E-01	4.82121E-01	-1.38666E+00
-5.11553E-01	2.47507E-01	4.83057E-01	-1.38301E+00
-1.62097E-01	5.32985E-01	4.83984E-01	-1.37933E+00
2.77173E-01	4.49401E-01	4.84957E-01	-1.37567E+00
4.73439E-01	6.86041E-02	4.85942E-01	-1.37208E+00
2.93667E-01	-2.82620E-01	4.86872E-01	-1.36853E+00
-5.34716E-02	-3.13422E-01	4.87763E-01	-1.36497E+00
-2.10907E-01	-5.96890E-02	4.88668E-01	-1.36140E+00
-4.44015E-02	1.43976E-01	4.89574E-01	-1.35785E+00
1.96574E-01	2.52079E-02	4.90452E-01	-1.35431E+00
1.39524E-01	-2.96416E-01	4.91326E-01	-1.35074E+00
-2.69768E-01	-3.95385E-01	4.92255E-01	-1.34716E+00
-6.30841E-01	-4.89125E-03	4.93220E-01	-1.34364E+00
-4.64953E-01	6.18310E-01	4.94170E-01	-1.34017E+00
2.43769E-01	8.65182E-01	4.95109E-01	-1.33671E+00
9.27084E-01	3.74585E-01	4.96055E-01	-1.33329E+00
9.27189E-01	-5.36636E-01	4.96966E-01	-1.32993E+00
1.53425E-01	-1.09837E+00	4.97815E-01	-1.32657E+00
-7.72470E-01	-7.98180E-01	4.98641E-01	-1.32317E+00
-1.06958E+00	1.16030E-01	4.99492E-01	-1.31975E+00
-5.24665E-01	8.57805E-01	5.00361E-01	-1.31634E+00
3.28061E-01	8.41187E-01	5.01226E-01	-1.31295E+00
7.45750E-01	2.03032E-01	5.02098E-01	-1.30955E+00
4.79799E-01	-3.96573E-01	5.03009E-01	-1.30616E+00
-5.82024E-02	-4.57632E-01	5.03943E-01	-1.30283E+00
-2.91062E-01	-9.32544E-02	5.04859E-01	-1.29954E+00
-7.60546E-02	1.82062E-01	5.05752E-01	-1.29626E+00
2.12207E-01	4.95042E-02	5.06643E-01	-1.29300E+00
1.53469E-01	-2.88272E-01	5.07526E-01	-1.28977E+00
-2.38482E-01	-3.73620E-01	5.08378E-01	-1.28656E+00
-5.41465E-01	-2.21691E-02	5.09198E-01	-1.28334E+00
-3.93541E-01	4.70779E-01	5.10024E-01	-1.28011E+00
1.22935E-01	6.43244E-01	5.10864E-01	-1.27689E+00
5.76782E-01	3.32502E-01	5.11698E-01	-1.27368E+00
6.18720E-01	-1.96735E-01	5.12530E-01	-1.27047E+00
2.75336E-01	-5.46096E-01	5.13371E-01	-1.26727E+00
-1.57518E-01	-5.40140E-01	5.14225E-01	-1.26408E+00
-4.28502E-01	-2.87770E-01	5.15077E-01	-1.26092E+00
-4.87448E-01	2.53535E-02	5.15919E-01	-1.25776E+00
-3.83358E-01	3.05840E-01	5.16770E-01	-1.25461E+00
-1.29854E-01	5.06581E-01	5.17640E-01	-1.25148E+00
2.49184E-01	5.16862E-01	5.18504E-01	-1.24839E+00
5.85619E-01	2.24534E-01	5.19353E-01	-1.24532E+00
6.07421E-01	-2.81849E-01	5.20199E-01	-1.24225E+00
2.04832E-01	-6.60315E-01	5.21046E-01	-1.23921E+00
-3.66433E-01	-5.80145E-01	5.21870E-01	-1.23621E+00
-6.46655E-01	-7.57892E-02	5.22648E-01	-1.23322E+00
-4.06482E-01	4.22244E-01	5.23403E-01	-1.23019E+00
9.76910E-02	4.84975E-01	5.24168E-01	-1.22714E+00
3.65356E-01	1.23429E-01	5.24953E-01	-1.22409E+00
1.74425E-01	-2.19413E-01	5.25757E-01	-1.22103E+00
-1.77785E-01	-1.52012E-01	5.26598E-01	-1.21798E+00
-2.06469E-01	2.19006E-01	5.27476E-01	-1.21497E+00
1.94754E-01	3.89375E-01	5.28354E-01	-1.21203E+00
5.85439E-01	2.97734E-02	5.29193E-01	-1.20914E+00
4.33688E-01	-5.88650E-01	5.29990E-01	-1.20626E+00
-2.69117E-01	-8.15095E-01	5.30752E-01	-1.20338E+00
