jMRUI Data Textfile
 
Filename: Glc.txt
 
PointsInDataset: 2048
DatasetsInFile: 1
SamplingInterval: 5.00000E-01
ZeroOrderPhase: 0E0
BeginTime: 0E0
TransmitterFrequency: 1.27740E+08
MagneticField: 0E0
TypeOfNucleus: 0E0
NameOfPatient: 
DateOfExperiment: 
Spectrometer: Vespa-Simulation
AdditionalInfo: see 'readme' file for Vespa-Simulation output synopsis
 
  
Signal and FFT 
sig(real)	sig(imag)	fft(real)	fft(imag)
Signal 1 out of 1 in file
5.00163E+00	-1.21188E-01	1.93314E+01	-2.09836E+01
4.41962E+00	-2.13129E+00	1.60733E+01	-2.13576E+01
2.99669E+00	-3.62527E+00	1.36006E+01	-2.12044E+01
1.08832E+00	-4.28097E+00	1.17067E+01	-2.08033E+01
-8.48111E-01	-3.99129E+00	1.02408E+01	-2.02935E+01
-2.37208E+00	-2.88105E+00	9.09488E+00	-1.97533E+01
-3.16855E+00	-1.26346E+00	8.17945E+00	-1.92259E+01
-3.11829E+00	4.49294E-01	7.42779E+00	-1.87197E+01
-2.31375E+00	1.85500E+00	6.80282E+00	-1.82323E+01
-1.01987E+00	2.66031E+00	6.28307E+00	-1.77646E+01
4.06235E-01	2.74436E+00	5.85241E+00	-1.73214E+01
1.61231E+00	2.17311E+00	5.49404E+00	-1.69091E+01
2.33840E+00	1.16485E+00	5.18908E+00	-1.65288E+01
2.47258E+00	1.99891E-02	4.92483E+00	-1.61752E+01
2.06337E+00	-9.63362E-01	4.69501E+00	-1.58450E+01
1.28978E+00	-1.56472E+00	4.49293E+00	-1.55380E+01
4.00934E-01	-1.68879E+00	4.31092E+00	-1.52517E+01
-3.55946E-01	-1.37566E+00	4.14400E+00	-1.49815E+01
-7.99385E-01	-7.75028E-01	3.98996E+00	-1.47235E+01
-8.53571E-01	-9.48024E-02	3.84705E+00	-1.44749E+01
-5.56604E-01	4.59816E-01	3.71495E+00	-1.42316E+01
-3.84461E-02	7.40128E-01	3.59731E+00	-1.39919E+01
5.22619E-01	6.87550E-01	3.49509E+00	-1.37595E+01
9.51602E-01	3.40666E-01	3.40462E+00	-1.35341E+01
1.12263E+00	-1.83307E-01	3.32999E+00	-1.33126E+01
9.88105E-01	-7.25357E-01	3.27559E+00	-1.31044E+01
5.85584E-01	-1.12891E+00	3.23072E+00	-1.29176E+01
2.29198E-02	-1.27989E+00	3.18512E+00	-1.27470E+01
-5.52868E-01	-1.13343E+00	3.13793E+00	-1.25856E+01
-9.94154E-01	-7.21840E-01	3.08903E+00	-1.24326E+01
-1.18912E+00	-1.43667E-01	3.03300E+00	-1.22828E+01
-1.08769E+00	4.62398E-01	2.97551E+00	-1.21232E+01
-7.11870E-01	9.51822E-01	2.93354E+00	-1.19572E+01
-1.48991E-01	1.20851E+00	2.90734E+00	-1.17998E+01
4.69908E-01	1.17151E+00	2.88778E+00	-1.16551E+01
1.00097E+00	8.48437E-01	2.86971E+00	-1.15205E+01
1.32095E+00	3.13031E-01	2.85168E+00	-1.13929E+01
1.35533E+00	-3.12249E-01	2.83363E+00	-1.12707E+01
1.09524E+00	-8.84490E-01	2.81581E+00	-1.11529E+01
5.99311E-01	-1.27335E+00	2.79846E+00	-1.10387E+01
-1.99264E-02	-1.39093E+00	2.78169E+00	-1.09279E+01
-6.22251E-01	-1.21218E+00	2.76559E+00	-1.08203E+01
-1.07230E+00	-7.80493E-01	2.75020E+00	-1.07155E+01
-1.27134E+00	-1.97397E-01	2.73555E+00	-1.06134E+01
-1.18028E+00	4.01589E-01	2.72163E+00	-1.05139E+01
-8.28640E-01	8.79425E-01	2.70841E+00	-1.04170E+01
-3.06851E-01	1.13023E+00	2.69586E+00	-1.03224E+01
2.56238E-01	1.10455E+00	2.68395E+00	-1.02300E+01
7.25223E-01	8.20503E-01	2.67267E+00	-1.01398E+01
9.91385E-01	3.58196E-01	2.66197E+00	-1.00516E+01
9.99069E-01	-1.61372E-01	2.65183E+00	-9.96541E+00
7.58217E-01	-6.07354E-01	2.64222E+00	-9.88113E+00
3.40109E-01	-8.72247E-01	2.63309E+00	-9.79867E+00
-1.42511E-01	-8.98322E-01	2.62443E+00	-9.71797E+00
-5.65641E-01	-6.90732E-01	2.61620E+00	-9.63895E+00
-8.26259E-01	-3.13904E-01	2.60838E+00	-9.56155E+00
-8.68307E-01	1.27517E-01	2.60096E+00	-9.48570E+00
-6.95379E-01	5.17648E-01	2.59390E+00	-9.41137E+00
-3.67221E-01	7.60524E-01	2.58717E+00	-9.33849E+00
1.87069E-02	8.04735E-01	2.58076E+00	-9.26700E+00
3.55108E-01	6.55247E-01	2.57465E+00	-9.19685E+00
5.54494E-01	3.69504E-01	2.56883E+00	-9.12799E+00
5.72215E-01	3.93627E-02	2.56330E+00	-9.06038E+00
4.17024E-01	-2.35823E-01	2.55803E+00	-8.99399E+00
1.46460E-01	-3.77168E-01	2.55300E+00	-8.92878E+00
-1.51086E-01	-3.47703E-01	2.54820E+00	-8.86472E+00
-3.82397E-01	-1.61447E-01	2.54360E+00	-8.80176E+00
-4.75956E-01	1.21968E-01	2.53920E+00	-8.73985E+00
-4.01839E-01	4.15254E-01	2.53501E+00	-8.67896E+00
-1.79543E-01	6.28726E-01	2.53100E+00	-8.61907E+00
1.28156E-01	6.95768E-01	2.52717E+00	-8.56015E+00
4.33066E-01	5.91407E-01	2.52352E+00	-8.50218E+00
6.46327E-01	3.39270E-01	2.52002E+00	-8.44512E+00
7.03019E-01	5.04836E-03	2.51667E+00	-8.38895E+00
5.79936E-01	-3.21214E-01	2.51346E+00	-8.33364E+00
3.02119E-01	-5.49335E-01	2.51038E+00	-8.27915E+00
-6.35341E-02	-6.12969E-01	2.50745E+00	-8.22547E+00
-4.25669E-01	-4.87107E-01	2.50466E+00	-8.17259E+00
-6.91885E-01	-1.94630E-01	2.50200E+00	-8.12049E+00
-7.92293E-01	1.99475E-01	2.49946E+00	-8.06917E+00
-6.96956E-01	6.04527E-01	2.49700E+00	-8.01861E+00
-4.22943E-01	9.26843E-01	2.49462E+00	-7.96877E+00
-2.96383E-02	1.09251E+00	2.49229E+00	-7.91962E+00
3.96333E-01	1.06497E+00	2.49003E+00	-7.87110E+00
7.62530E-01	8.52800E-01	2.48787E+00	-7.82320E+00
9.92578E-01	5.06376E-01	2.48584E+00	-7.77592E+00
1.04363E+00	1.04520E-01	2.48391E+00	-7.72927E+00
9.14920E-01	-2.65119E-01	2.48208E+00	-7.68324E+00
6.45787E-01	-5.26987E-01	2.48034E+00	-7.63783E+00
3.04282E-01	-6.34325E-01	2.47870E+00	-7.59304E+00
-3.04922E-02	-5.78260E-01	2.47709E+00	-7.54887E+00
-2.87566E-01	-3.87119E-01	2.47551E+00	-7.50527E+00
-4.20069E-01	-1.16830E-01	2.47394E+00	-7.46219E+00
-4.14082E-01	1.64581E-01	2.47242E+00	-7.41961E+00
-2.88901E-01	3.94260E-01	2.47097E+00	-7.37751E+00
-8.90232E-02	5.29108E-01	2.46960E+00	-7.33592E+00
1.29326E-01	5.54102E-01	2.46828E+00	-7.29484E+00
3.13439E-01	4.82899E-01	2.46702E+00	-7.25424E+00
4.27004E-01	3.51057E-01	2.46580E+00	-7.21411E+00
4.57554E-01	2.04223E-01	2.46464E+00	-7.17445E+00
4.16868E-01	8.49279E-02	2.46351E+00	-7.13524E+00
3.34981E-01	2.13914E-02	2.46245E+00	-7.09645E+00
2.49795E-01	2.13052E-02	2.46147E+00	-7.05811E+00
1.95499E-01	7.17494E-02	2.46056E+00	-7.02025E+00
1.93031E-01	1.44865E-01	2.45966E+00	-6.98285E+00
2.44990E-01	2.07160E-01	2.45876E+00	-6.94589E+00
3.36069E-01	2.29698E-01	2.45786E+00	-6.90933E+00
4.38405E-01	1.96341E-01	2.45695E+00	-6.87315E+00
5.20094E-01	1.07894E-01	2.45605E+00	-6.83732E+00
5.54293E-01	-1.85962E-02	2.45518E+00	-6.80182E+00
5.26443E-01	-1.54941E-01	2.45439E+00	-6.76668E+00
4.37860E-01	-2.69431E-01	2.45366E+00	-6.73191E+00
3.05051E-01	-3.35059E-01	2.45294E+00	-6.69751E+00
1.55277E-01	-3.36028E-01	2.45226E+00	-6.66342E+00
1.97325E-02	-2.71168E-01	2.45167E+00	-6.62968E+00
-7.36612E-02	-1.53640E-01	2.45116E+00	-6.59634E+00
-1.06295E-01	-7.45910E-03	2.45066E+00	-6.56341E+00
-7.23713E-02	1.38156E-01	2.45012E+00	-6.53085E+00
2.05968E-02	2.55050E-01	2.44955E+00	-6.49861E+00
1.54031E-01	3.21705E-01	2.44895E+00	-6.46667E+00
3.02543E-01	3.27043E-01	2.44834E+00	-6.43499E+00
4.39209E-01	2.71910E-01	2.44775E+00	-6.40356E+00
5.40661E-01	1.68282E-01	2.44722E+00	-6.37239E+00
5.91320E-01	3.64428E-02	2.44677E+00	-6.34150E+00
5.85969E-01	-9.91787E-02	2.44638E+00	-6.31094E+00
5.30372E-01	-2.14890E-01	2.44601E+00	-6.28070E+00
4.39842E-01	-2.92284E-01	2.44565E+00	-6.25078E+00
3.35939E-01	-3.21953E-01	2.44527E+00	-6.22115E+00
2.41804E-01	-3.05401E-01	2.44489E+00	-6.19178E+00
1.76968E-01	-2.54693E-01	2.44452E+00	-6.16267E+00
1.52617E-01	-1.89727E-01	2.44415E+00	-6.13381E+00
1.68681E-01	-1.33344E-01	2.44381E+00	-6.10520E+00
2.13399E-01	-1.05392E-01	2.44350E+00	-6.07683E+00
2.66035E-01	-1.17012E-01	2.44322E+00	-6.04873E+00
3.02332E-01	-1.66781E-01	2.44295E+00	-6.02091E+00
3.01553E-01	-2.40047E-01	2.44265E+00	-5.99335E+00
2.53295E-01	-3.12071E-01	2.44235E+00	-5.96600E+00
1.62060E-01	-3.54566E-01	2.44205E+00	-5.93886E+00
4.77983E-02	-3.44188E-01	2.44178E+00	-5.91194E+00
-5.79958E-02	-2.70524E-01	2.44152E+00	-5.88525E+00
-1.20395E-01	-1.41327E-01	2.44128E+00	-5.85876E+00
-1.11163E-01	1.71346E-02	2.44109E+00	-5.83248E+00
-1.81877E-02	1.65226E-01	2.44095E+00	-5.80645E+00
1.48716E-01	2.59697E-01	2.44082E+00	-5.78068E+00
3.57758E-01	2.65661E-01	2.44066E+00	-5.75515E+00
5.61576E-01	1.67355E-01	2.44048E+00	-5.72983E+00
7.08581E-01	-2.53844E-02	2.44030E+00	-5.70468E+00
7.56672E-01	-2.77439E-01	2.44014E+00	-5.67975E+00
6.85286E-01	-5.35806E-01	2.43997E+00	-5.65501E+00
5.02275E-01	-7.42475E-01	2.43982E+00	-5.63045E+00
2.43331E-01	-8.49407E-01	2.43970E+00	-5.60609E+00
-3.62093E-02	-8.31446E-01	2.43956E+00	-5.58196E+00
-2.75417E-01	-6.93414E-01	2.43940E+00	-5.55800E+00
-4.23218E-01	-4.69157E-01	2.43923E+00	-5.53418E+00
-4.51756E-01	-2.12751E-01	2.43910E+00	-5.51052E+00
-3.63210E-01	1.58523E-02	2.43902E+00	-5.48703E+00
-1.88375E-01	1.66626E-01	2.43899E+00	-5.46374E+00
2.25933E-02	2.12208E-01	2.43897E+00	-5.44067E+00
2.14515E-01	1.53997E-01	2.43897E+00	-5.41779E+00
3.42375E-01	1.99850E-02	2.43897E+00	-5.39514E+00
3.82963E-01	-1.44912E-01	2.43892E+00	-5.37270E+00
3.39592E-01	-2.92720E-01	2.43881E+00	-5.35042E+00
2.38887E-01	-3.86509E-01	2.43867E+00	-5.32825E+00
1.20812E-01	-4.10306E-01	2.43852E+00	-5.30619E+00
2.53018E-02	-3.72068E-01	2.43843E+00	-5.28424E+00
-2.02825E-02	-2.99117E-01	2.43840E+00	-5.26246E+00
-9.01440E-03	-2.27767E-01	2.43839E+00	-5.24088E+00
4.46216E-02	-1.90641E-01	2.43834E+00	-5.21948E+00
1.10809E-01	-2.05797E-01	2.43828E+00	-5.19819E+00
1.55129E-01	-2.71002E-01	2.43827E+00	-5.17702E+00
1.50516E-01	-3.64850E-01	2.43831E+00	-5.15602E+00
8.65137E-02	-4.54121E-01	2.43837E+00	-5.13522E+00
-2.70510E-02	-5.04865E-01	2.43841E+00	-5.11460E+00
-1.62954E-01	-4.93574E-01	2.43843E+00	-5.09413E+00
-2.85092E-01	-4.14878E-01	2.43842E+00	-5.07381E+00
-3.59447E-01	-2.83509E-01	2.43839E+00	-5.05361E+00
-3.64479E-01	-1.30013E-01	2.43836E+00	-5.03353E+00
-2.97422E-01	8.23768E-03	2.43834E+00	-5.01356E+00
-1.74851E-01	9.78087E-02	2.43835E+00	-4.99371E+00
-2.75786E-02	1.18443E-01	2.43837E+00	-4.97402E+00
1.08315E-01	6.80826E-02	2.43839E+00	-4.95447E+00
2.01429E-01	-3.75456E-02	2.43840E+00	-4.93505E+00
2.32999E-01	-1.70347E-01	2.43842E+00	-4.91572E+00
2.00658E-01	-2.98163E-01	2.43848E+00	-4.89652E+00
1.17369E-01	-3.93462E-01	2.43858E+00	-4.87748E+00
6.27244E-03	-4.39745E-01	2.43867E+00	-4.85860E+00
-1.06563E-01	-4.34140E-01	2.43875E+00	-4.83988E+00
-1.99108E-01	-3.85903E-01	2.43878E+00	-4.82128E+00
-2.58061E-01	-3.11904E-01	2.43879E+00	-4.80278E+00
-2.80345E-01	-2.30825E-01	2.43879E+00	-4.78438E+00
-2.71326E-01	-1.58204E-01	2.43881E+00	-4.76607E+00
