jMRUI Data Textfile
 
Filename: Gln.txt
 
PointsInDataset: 2048
DatasetsInFile: 1
SamplingInterval: 5.00000E-01
ZeroOrderPhase: 0E0
BeginTime: 0E0
TransmitterFrequency: 1.27740E+08
MagneticField: 0E0
TypeOfNucleus: 0E0
NameOfPatient: 
DateOfExperiment: 
Spectrometer: Vespa-Simulation
AdditionalInfo: see 'readme' file for Vespa-Simulation output synopsis
 
  
Signal and FFT 
sig(real)	sig(imag)	fft(real)	fft(imag)
Signal 1 out of 1 in file
4.03831E+00	-1.86468E-01	1.95454E+00	-1.09371E+00
2.26759E+00	1.37239E-01	1.95389E+00	-1.06922E+00
-1.03604E+00	7.78535E-02	1.95321E+00	-1.04485E+00
-2.92893E+00	-3.65434E-01	1.95255E+00	-1.02058E+00
-1.99005E+00	-6.99675E-01	1.95195E+00	-9.96418E-01
4.98138E-01	-6.03019E-01	1.95145E+00	-9.72401E-01
2.03620E+00	-3.19565E-01	1.95103E+00	-9.48575E-01
1.37626E+00	-2.73094E-01	1.95065E+00	-9.24962E-01
-5.25824E-01	-4.21535E-01	1.95027E+00	-9.01545E-01
-1.79203E+00	-2.48257E-01	1.94986E+00	-8.78280E-01
-1.54239E+00	5.12035E-01	1.94944E+00	-8.55136E-01
-4.55492E-01	1.31872E+00	1.94902E+00	-8.32099E-01
3.21589E-01	1.26378E+00	1.94863E+00	-8.09158E-01
4.43970E-01	1.45247E-01	1.94828E+00	-7.86308E-01
4.25081E-01	-1.07612E+00	1.94800E+00	-7.63578E-01
6.77552E-01	-1.13501E+00	1.94777E+00	-7.41000E-01
8.85332E-01	1.60136E-01	1.94755E+00	-7.18583E-01
4.86667E-01	1.55519E+00	1.94731E+00	-6.96295E-01
-4.17523E-01	1.53474E+00	1.94706E+00	-6.74102E-01
-9.64598E-01	-9.13353E-02	1.94680E+00	-6.51989E-01
-4.70767E-01	-1.89162E+00	1.94656E+00	-6.29932E-01
6.77241E-01	-2.19370E+00	1.94638E+00	-6.07933E-01
1.29577E+00	-7.44551E-01	1.94627E+00	-5.86036E-01
6.35001E-01	1.06625E+00	1.94622E+00	-5.64295E-01
-7.77826E-01	1.62626E+00	1.94614E+00	-5.42694E-01
-1.64103E+00	6.58092E-01	1.94602E+00	-5.21178E-01
-1.20125E+00	-6.65473E-01	1.94590E+00	-4.99715E-01
2.71466E-02	-1.04371E+00	1.94578E+00	-4.78294E-01
8.78999E-01	-3.20926E-01	1.94571E+00	-4.56924E-01
7.53371E-01	5.79215E-01	1.94568E+00	-4.35651E-01
9.88727E-02	8.00783E-01	1.94565E+00	-4.14468E-01
-2.57911E-01	4.08930E-01	1.94561E+00	-3.93340E-01
-6.55628E-02	7.18621E-02	1.94560E+00	-3.72264E-01
2.11108E-01	1.16674E-01	1.94561E+00	-3.51261E-01
1.15741E-01	1.67575E-01	1.94561E+00	-3.30324E-01
-1.77528E-01	-2.33110E-01	1.94560E+00	-3.09420E-01
-1.23239E-01	-8.67870E-01	1.94563E+00	-2.88548E-01
4.02415E-01	-9.72345E-01	1.94568E+00	-2.67718E-01
8.06617E-01	-1.70564E-01	1.94577E+00	-2.46941E-01
4.25434E-01	9.07637E-01	1.94590E+00	-2.26250E-01
-6.11282E-01	1.16333E+00	1.94601E+00	-2.05655E-01
-1.35691E+00	2.21203E-01	1.94605E+00	-1.85086E-01
-9.99830E-01	-1.05423E+00	1.94609E+00	-1.64503E-01
2.23092E-01	-1.37455E+00	1.94615E+00	-1.43926E-01
1.19048E+00	-3.59605E-01	1.94625E+00	-1.23345E-01
1.01418E+00	1.04227E+00	1.94640E+00	-1.02794E-01
-6.90299E-02	1.51343E+00	1.94659E+00	-8.23077E-02
-9.73144E-01	6.88998E-01	1.94678E+00	-6.18854E-02
-8.83298E-01	-5.45464E-01	1.94695E+00	-4.14985E-02
-1.64971E-02	-1.03674E+00	1.94711E+00	-2.11400E-02
7.27928E-01	-5.20182E-01	1.94725E+00	-7.84420E-04
7.48907E-01	2.61891E-01	1.94738E+00	1.95946E-02
2.58538E-01	4.88349E-01	1.94755E+00	3.99858E-02
-1.36886E-01	1.21973E-01	1.94774E+00	6.03676E-02
-1.79289E-01	-2.18800E-01	1.94796E+00	8.07344E-02
-1.34023E-01	-1.07846E-01	1.94820E+00	1.01084E-01
-2.80924E-01	1.85594E-01	1.94845E+00	1.21412E-01
-4.50609E-01	1.14734E-01	1.94870E+00	1.41719E-01
-2.36850E-01	-3.68375E-01	1.94893E+00	1.62024E-01
3.77348E-01	-6.68455E-01	1.94914E+00	1.82357E-01
8.16337E-01	-2.51547E-01	1.94938E+00	2.02730E-01
4.92771E-01	6.30360E-01	1.94965E+00	2.23118E-01
-4.45123E-01	1.09634E+00	1.94996E+00	2.43500E-01
-1.11655E+00	5.71622E-01	1.95028E+00	2.63866E-01
-7.77103E-01	-5.28580E-01	1.95061E+00	2.84225E-01
3.48105E-01	-1.16235E+00	1.95093E+00	3.04574E-01
1.21304E+00	-7.18736E-01	1.95121E+00	3.24938E-01
9.88165E-01	3.57688E-01	1.95148E+00	3.45346E-01
-9.35158E-02	1.03560E+00	1.95176E+00	3.65799E-01
-9.82788E-01	7.38813E-01	1.95204E+00	3.86288E-01
-8.87160E-01	-1.41909E-01	1.95233E+00	4.06824E-01
-3.02741E-02	-7.45652E-01	1.95265E+00	4.27403E-01
6.71653E-01	-6.32409E-01	1.95299E+00	4.48021E-01
6.02293E-01	-1.08339E-01	1.95336E+00	4.68666E-01
1.39984E-02	2.58306E-01	1.95375E+00	4.89333E-01
-3.80228E-01	2.73785E-01	1.95415E+00	5.10005E-01
-2.42720E-01	1.84569E-01	1.95453E+00	5.30702E-01
8.92259E-02	2.09637E-01	1.95490E+00	5.51457E-01
1.15327E-01	2.10343E-01	1.95528E+00	5.72277E-01
-1.78904E-01	-6.77418E-02	1.95569E+00	5.93139E-01
-3.24856E-01	-5.21168E-01	1.95610E+00	6.14031E-01
1.52793E-03	-6.57689E-01	1.95650E+00	6.34955E-01
5.12112E-01	-1.47049E-01	1.95687E+00	6.55940E-01
5.93138E-01	6.73774E-01	1.95723E+00	6.77011E-01
3.53222E-02	1.01219E+00	1.95759E+00	6.98189E-01
-6.53243E-01	4.26779E-01	1.95799E+00	7.19463E-01
-7.53583E-01	-6.28467E-01	1.95845E+00	7.40809E-01
-1.20891E-01	-1.17487E+00	1.95896E+00	7.62201E-01
6.31619E-01	-6.72541E-01	1.95951E+00	7.83614E-01
7.68874E-01	4.19646E-01	1.96005E+00	8.05030E-01
1.95987E-01	1.08858E+00	1.96054E+00	8.26490E-01
-4.78332E-01	7.61553E-01	1.96098E+00	8.48054E-01
-6.15783E-01	-1.72972E-01	1.96144E+00	8.69744E-01
-1.95651E-01	-8.18541E-01	1.96194E+00	8.91485E-01
2.54547E-01	-6.71233E-01	1.96240E+00	9.13266E-01
3.00355E-01	-2.64738E-02	1.96277E+00	9.35177E-01
4.87934E-02	4.49547E-01	1.96315E+00	9.57283E-01
-8.01116E-02	4.27115E-01	1.96361E+00	9.79555E-01
7.54158E-02	1.31769E-01	1.96417E+00	1.00191E+00
2.22491E-01	-5.69180E-02	1.96477E+00	1.02430E+00
2.58491E-02	-6.30080E-02	1.96539E+00	1.04676E+00
-3.95086E-01	-9.31082E-02	1.96601E+00	1.06927E+00
-5.30039E-01	-2.46579E-01	1.96660E+00	1.09186E+00
-7.87744E-02	-3.16274E-01	1.96714E+00	1.11455E+00
6.08778E-01	-6.28038E-02	1.96766E+00	1.13742E+00
8.19124E-01	3.89871E-01	1.96824E+00	1.16043E+00
2.35866E-01	5.83465E-01	1.96884E+00	1.18353E+00
-6.55696E-01	2.21904E-01	1.96942E+00	1.20675E+00
-1.00546E+00	-4.24932E-01	1.97004E+00	1.23013E+00
-4.52961E-01	-7.26948E-01	1.97070E+00	1.25355E+00
4.95454E-01	-3.45169E-01	1.97125E+00	1.27709E+00
9.66401E-01	3.76649E-01	1.97178E+00	1.30088E+00
5.72602E-01	7.39716E-01	1.97241E+00	1.32483E+00
-2.54256E-01	4.09098E-01	1.97306E+00	1.34888E+00
-7.47309E-01	-2.48578E-01	1.97370E+00	1.37311E+00
-5.51897E-01	-5.71068E-01	1.97442E+00	1.39749E+00
2.63620E-02	-2.98855E-01	1.97516E+00	1.42194E+00
4.37728E-01	1.93659E-01	1.97583E+00	1.44652E+00
4.39024E-01	3.57770E-01	1.97650E+00	1.47133E+00
2.04549E-01	7.85192E-02	1.97720E+00	1.49631E+00
-4.90015E-03	-2.47758E-01	1.97793E+00	1.52143E+00
-1.38338E-01	-2.17524E-01	1.97864E+00	1.54673E+00
-2.80345E-01	1.03027E-01	1.97938E+00	1.57222E+00
-3.90682E-01	2.79756E-01	1.98014E+00	1.59787E+00
-2.73702E-01	5.38944E-02	1.98088E+00	1.62369E+00
1.37937E-01	-3.25087E-01	1.98160E+00	1.64972E+00
5.59666E-01	-3.77829E-01	1.98235E+00	1.67598E+00
5.53995E-01	3.34673E-02	1.98312E+00	1.70244E+00
9.55764E-03	5.08715E-01	1.98391E+00	1.72909E+00
-6.39467E-01	5.32877E-01	1.98470E+00	1.75599E+00
-7.71932E-01	5.07464E-02	1.98555E+00	1.78312E+00
-2.00391E-01	-4.56470E-01	1.98647E+00	1.81042E+00
5.97126E-01	-4.85113E-01	1.98737E+00	1.83787E+00
9.10635E-01	-4.43371E-02	1.98822E+00	1.86554E+00
4.75362E-01	3.75057E-01	1.98904E+00	1.89351E+00
-2.91867E-01	3.47342E-01	1.98991E+00	1.92174E+00
-7.19963E-01	-4.38526E-02	1.99079E+00	1.95020E+00
-5.15752E-01	-3.43670E-01	1.99167E+00	1.97897E+00
3.01451E-02	-2.57988E-01	1.99265E+00	2.00804E+00
4.06853E-01	3.92032E-02	1.99375E+00	2.03727E+00
3.75120E-01	1.56999E-01	1.99472E+00	2.06664E+00
9.07964E-02	-2.41313E-02	1.99564E+00	2.09641E+00
-1.69124E-01	-2.12141E-01	1.99665E+00	2.12646E+00
-2.89820E-01	-7.53789E-02	1.99758E+00	2.15676E+00
-3.09723E-01	3.18765E-01	1.99849E+00	2.18751E+00
-2.35062E-01	5.32572E-01	1.99958E+00	2.21861E+00
1.33911E-03	2.49425E-01	2.00075E+00	2.24993E+00
3.62806E-01	-3.23858E-01	2.00191E+00	2.28152E+00
5.91492E-01	-6.22117E-01	2.00308E+00	2.31341E+00
4.04563E-01	-3.08118E-01	2.00423E+00	2.34560E+00
-1.49876E-01	3.45194E-01	2.00536E+00	2.37816E+00
-6.15134E-01	6.99781E-01	2.00649E+00	2.41108E+00
-5.20312E-01	3.83863E-01	2.00763E+00	2.44442E+00
1.08255E-01	-3.38172E-01	2.00882E+00	2.47817E+00
6.90062E-01	-8.24193E-01	2.01011E+00	2.51229E+00
6.27585E-01	-6.61989E-01	2.01143E+00	2.54672E+00
-7.57526E-02	-2.06849E-02	2.01268E+00	2.58157E+00
-7.75346E-01	5.56515E-01	2.01401E+00	2.61690E+00
-8.07759E-01	6.55836E-01	2.01543E+00	2.65261E+00
-1.54851E-01	2.97393E-01	2.01686E+00	2.68869E+00
5.40481E-01	-1.77194E-01	2.01829E+00	2.72520E+00
6.28980E-01	-4.30598E-01	2.01974E+00	2.76216E+00
1.01321E-01	-3.43194E-01	2.02117E+00	2.79955E+00
-4.39166E-01	-7.10140E-03	2.02255E+00	2.83748E+00
-4.26466E-01	3.75644E-01	2.02398E+00	2.87600E+00
9.29146E-02	5.74222E-01	2.02554E+00	2.91507E+00
5.50666E-01	4.15367E-01	2.02720E+00	2.95461E+00
4.80990E-01	-8.21607E-02	2.02892E+00	2.99463E+00
-5.60674E-03	-6.27369E-01	2.03068E+00	3.03515E+00
-3.83631E-01	-8.01708E-01	2.03244E+00	3.07619E+00
-2.95371E-01	-4.05893E-01	2.03419E+00	3.11779E+00
8.93873E-02	2.93460E-01	2.03595E+00	3.16001E+00
2.99640E-01	7.22943E-01	2.03775E+00	3.20288E+00
9.06521E-02	5.00921E-01	2.03960E+00	3.24639E+00
-3.10251E-01	-1.80101E-01	2.04151E+00	3.29054E+00
-4.77851E-01	-6.95205E-01	2.04346E+00	3.33537E+00
-2.48830E-01	-5.60659E-01	2.04548E+00	3.38089E+00
1.33872E-01	1.08160E-01	2.04758E+00	3.42711E+00
3.12276E-01	7.11832E-01	2.04973E+00	3.47402E+00
1.86920E-01	7.41794E-01	2.05193E+00	3.52167E+00
-2.79319E-02	2.39482E-01	2.05417E+00	3.57010E+00
-8.12611E-02	-3.02125E-01	2.05648E+00	3.61933E+00
4.80262E-02	-4.53064E-01	2.05887E+00	3.66938E+00
1.78366E-01	-2.27305E-01	2.06135E+00	3.72025E+00
1.67699E-01	3.11018E-02	2.06389E+00	3.77195E+00
6.36595E-02	6.72733E-02	2.06647E+00	3.82452E+00
3.38850E-03	-4.76946E-02	2.06909E+00	3.87802E+00
1.90555E-02	-9.01487E-02	2.07177E+00	3.93250E+00
3.12993E-03	-5.89730E-03	2.07453E+00	3.98800E+00
-1.29820E-01	3.02128E-02	2.07739E+00	4.04453E+00
-2.99192E-01	-1.18310E-01	2.08036E+00	4.10214E+00
-3.25155E-01	-3.07597E-01	2.08347E+00	4.16081E+00
-1.37663E-01	-2.33274E-01	2.08667E+00	4.22057E+00
