jMRUI Data Textfile
 
Filename: Glu.txt
 
PointsInDataset: 2048
DatasetsInFile: 1
SamplingInterval: 5.00000E-01
ZeroOrderPhase: 0E0
BeginTime: 0E0
TransmitterFrequency: 1.27740E+08
MagneticField: 0E0
TypeOfNucleus: 0E0
NameOfPatient: 
DateOfExperiment: 
Spectrometer: Vespa-Simulation
AdditionalInfo: see 'readme' file for Vespa-Simulation output synopsis
 
  
Signal and FFT 
sig(real)	sig(imag)	fft(real)	fft(imag)
Signal 1 out of 1 in file
2.70711E+00	-2.47222E-01	1.22832E+00	-3.61534E+00
1.47586E+00	-2.10034E+00	1.22776E+00	-3.59569E+00
-6.37087E-01	-2.17875E+00	1.22722E+00	-3.57627E+00
-1.79492E+00	-6.04826E-01	1.22670E+00	-3.55710E+00
-1.13486E+00	1.05485E+00	1.22621E+00	-3.53814E+00
5.08287E-01	1.28527E+00	1.22574E+00	-3.51939E+00
1.46495E+00	-5.10427E-03	1.22530E+00	-3.50087E+00
8.06029E-01	-1.48920E+00	1.22488E+00	-3.48257E+00
-8.52526E-01	-1.71883E+00	1.22446E+00	-3.46446E+00
-2.00084E+00	-4.48452E-01	1.22408E+00	-3.44654E+00
-1.64857E+00	1.21928E+00	1.22374E+00	-3.42883E+00
-1.64797E-01	1.90739E+00	1.22341E+00	-3.41134E+00
1.16183E+00	1.19008E+00	1.22308E+00	-3.39404E+00
1.33045E+00	-1.38857E-01	1.22275E+00	-3.37691E+00
4.51740E-01	-8.94642E-01	1.22245E+00	-3.35995E+00
-4.97222E-01	-5.71257E-01	1.22217E+00	-3.34316E+00
-6.40497E-01	3.19400E-01	1.22193E+00	-3.32656E+00
5.07642E-02	8.41152E-01	1.22170E+00	-3.31013E+00
8.56294E-01	5.10519E-01	1.22148E+00	-3.29388E+00
1.03880E+00	-3.49717E-01	1.22129E+00	-3.27779E+00
4.75821E-01	-1.00521E+00	1.22111E+00	-3.26188E+00
-3.36140E-01	-9.88320E-01	1.22094E+00	-3.24614E+00
-7.96136E-01	-4.29796E-01	1.22076E+00	-3.23055E+00
-6.95761E-01	1.68844E-01	1.22059E+00	-3.21509E+00
-2.86451E-01	4.12491E-01	1.22046E+00	-3.19978E+00
3.78710E-02	2.85125E-01	1.22036E+00	-3.18464E+00
8.27306E-02	4.69198E-02	1.22026E+00	-3.16965E+00
-6.58490E-02	-5.32218E-02	1.22016E+00	-3.15481E+00
-2.03975E-01	4.06349E-02	1.22007E+00	-3.14011E+00
-2.00123E-01	2.22860E-01	1.21999E+00	-3.12556E+00
-5.27830E-02	3.59797E-01	1.21990E+00	-3.11113E+00
1.65005E-01	3.74593E-01	1.21984E+00	-3.09682E+00
3.65757E-01	2.49786E-01	1.21980E+00	-3.08264E+00
4.64687E-01	1.30234E-02	1.21979E+00	-3.06860E+00
3.96025E-01	-2.53684E-01	1.21978E+00	-3.05471E+00
1.63875E-01	-4.21643E-01	1.21977E+00	-3.04096E+00
-1.18756E-01	-3.88143E-01	1.21975E+00	-3.02732E+00
-2.80096E-01	-1.74655E-01	1.21974E+00	-3.01379E+00
-2.23224E-01	5.70712E-02	1.21974E+00	-3.00039E+00
-2.64488E-02	1.23506E-01	1.21975E+00	-2.98709E+00
1.06267E-01	-1.54362E-02	1.21978E+00	-2.97389E+00
2.48469E-02	-2.04814E-01	1.21984E+00	-2.96083E+00
-2.18125E-01	-2.26178E-01	1.21990E+00	-2.94791E+00
-4.00359E-01	-3.24900E-03	1.21995E+00	-2.93510E+00
-3.28457E-01	3.12699E-01	1.21999E+00	-2.92239E+00
-2.15281E-02	4.68119E-01	1.22004E+00	-2.90979E+00
2.95681E-01	3.33454E-01	1.22009E+00	-2.89728E+00
3.88733E-01	2.05511E-02	1.22015E+00	-2.88486E+00
2.17943E-01	-2.18499E-01	1.22024E+00	-2.87254E+00
-3.63060E-02	-2.15576E-01	1.22035E+00	-2.86033E+00
-1.45169E-01	-2.61323E-02	1.22046E+00	-2.84824E+00
-3.55472E-02	1.38345E-01	1.22057E+00	-2.83625E+00
1.59122E-01	1.11853E-01	1.22069E+00	-2.82436E+00
2.36429E-01	-8.13553E-02	1.22081E+00	-2.81257E+00
1.12362E-01	-2.64174E-01	1.22092E+00	-2.80089E+00
-1.13652E-01	-2.76573E-01	1.22103E+00	-2.78929E+00
-2.62010E-01	-1.13670E-01	1.22114E+00	-2.77777E+00
-2.34712E-01	8.69664E-02	1.22126E+00	-2.76634E+00
-8.61295E-02	1.79374E-01	1.22139E+00	-2.75501E+00
4.69963E-02	1.30747E-01	1.22151E+00	-2.74375E+00
7.39708E-02	2.62136E-02	1.22163E+00	-2.73256E+00
1.51215E-02	-2.79428E-02	1.22179E+00	-2.72145E+00
-4.21672E-02	7.23509E-04	1.22197E+00	-2.71044E+00
-3.61222E-02	6.12486E-02	1.22214E+00	-2.69954E+00
2.11621E-02	8.58469E-02	1.22231E+00	-2.68872E+00
7.39886E-02	5.52793E-02	1.22248E+00	-2.67798E+00
8.55725E-02	2.51494E-03	1.22265E+00	-2.66734E+00
6.52299E-02	-3.39530E-02	1.22280E+00	-2.65678E+00
4.18624E-02	-4.82746E-02	1.22293E+00	-2.64626E+00
2.46040E-02	-5.85845E-02	1.22307E+00	-2.63580E+00
-1.60768E-03	-7.11524E-02	1.22325E+00	-2.62539E+00
-4.44806E-02	-6.60434E-02	1.22345E+00	-2.61507E+00
-8.01062E-02	-2.38077E-02	1.22367E+00	-2.60483E+00
-7.11700E-02	3.90877E-02	1.22391E+00	-2.59470E+00
-1.19530E-02	7.29492E-02	1.22414E+00	-2.58467E+00
5.17483E-02	4.18601E-02	1.22434E+00	-2.57472E+00
5.84479E-02	-3.17310E-02	1.22452E+00	-2.56482E+00
-6.57335E-03	-7.72336E-02	1.22469E+00	-2.55497E+00
-8.64417E-02	-4.04904E-02	1.22487E+00	-2.54518E+00
-9.88920E-02	5.72768E-02	1.22507E+00	-2.53544E+00
-1.60620E-02	1.28976E-01	1.22529E+00	-2.52577E+00
9.95637E-02	9.93144E-02	1.22552E+00	-2.51619E+00
1.44737E-01	-1.94727E-02	1.22573E+00	-2.50668E+00
7.06421E-02	-1.29309E-01	1.22595E+00	-2.49723E+00
-6.53141E-02	-1.31210E-01	1.22616E+00	-2.48785E+00
-1.44786E-01	-1.81178E-02	1.22635E+00	-2.47851E+00
-9.44597E-02	1.12540E-01	1.22657E+00	-2.46921E+00
4.40435E-02	1.43253E-01	1.22682E+00	-2.45999E+00
1.47645E-01	4.33018E-02	1.22706E+00	-2.45085E+00
1.21448E-01	-1.00453E-01	1.22729E+00	-2.44175E+00
-1.43628E-02	-1.59498E-01	1.22755E+00	-2.43273E+00
-1.40543E-01	-7.90404E-02	1.22781E+00	-2.42380E+00
-1.44613E-01	7.16801E-02	1.22801E+00	-2.41493E+00
-2.14642E-02	1.60066E-01	1.22821E+00	-2.40605E+00
1.21485E-01	1.07627E-01	1.22848E+00	-2.39723E+00
1.58932E-01	-4.06713E-02	1.22872E+00	-2.38852E+00
5.75255E-02	-1.56065E-01	1.22893E+00	-2.37983E+00
-9.55820E-02	-1.38515E-01	1.22918E+00	-2.37117E+00
-1.69081E-01	-2.94632E-03	1.22946E+00	-2.36261E+00
-1.00749E-01	1.34833E-01	1.22969E+00	-2.35413E+00
5.03057E-02	1.58251E-01	1.22990E+00	-2.34565E+00
1.55486E-01	4.90407E-02	1.23015E+00	-2.33721E+00
1.26472E-01	-9.85776E-02	1.23040E+00	-2.32885E+00
-1.06486E-02	-1.58733E-01	1.23063E+00	-2.32053E+00
-1.38280E-01	-8.02820E-02	1.23088E+00	-2.31223E+00
-1.46737E-01	7.02909E-02	1.23117E+00	-2.30401E+00
-2.67519E-02	1.64648E-01	1.23144E+00	-2.29587E+00
1.21809E-01	1.20311E-01	1.23169E+00	-2.28777E+00
1.72620E-01	-2.89474E-02	1.23195E+00	-2.27972E+00
7.92085E-02	-1.59187E-01	1.23218E+00	-2.27171E+00
-8.35214E-02	-1.58955E-01	1.23242E+00	-2.26373E+00
-1.79109E-01	-2.44150E-02	1.23267E+00	-2.25579E+00
-1.23798E-01	1.33523E-01	1.23293E+00	-2.24790E+00
3.95916E-02	1.79791E-01	1.23320E+00	-2.24006E+00
1.73236E-01	7.05559E-02	1.23348E+00	-2.23228E+00
1.59495E-01	-1.04672E-01	1.23374E+00	-2.22457E+00
4.51622E-03	-1.94767E-01	1.23397E+00	-2.21688E+00
-1.61005E-01	-1.16573E-01	1.23419E+00	-2.20921E+00
-1.90715E-01	6.81732E-02	1.23445E+00	-2.20156E+00
-5.16728E-02	1.99840E-01	1.23474E+00	-2.19397E+00
1.40054E-01	1.57857E-01	1.23501E+00	-2.18645E+00
2.14979E-01	-2.92385E-02	1.23527E+00	-2.17896E+00
9.92439E-02	-2.01124E-01	1.23556E+00	-2.17150E+00
-1.13781E-01	-2.02568E-01	1.23587E+00	-2.16413E+00
-2.38718E-01	-2.33045E-02	1.23611E+00	-2.15681E+00
-1.60411E-01	1.85630E-01	1.23632E+00	-2.14947E+00
5.93150E-02	2.40448E-01	1.23662E+00	-2.14216E+00
2.30050E-01	8.87228E-02	1.23691E+00	-2.13495E+00
1.99685E-01	-1.38574E-01	1.23713E+00	-2.12777E+00
-7.02687E-03	-2.39272E-01	1.23738E+00	-2.12055E+00
-2.05623E-01	-1.20718E-01	1.23770E+00	-2.11341E+00
-2.14502E-01	1.13278E-01	1.23799E+00	-2.10638E+00
-1.96498E-02	2.51329E-01	1.23820E+00	-2.09936E+00
2.08564E-01	1.63256E-01	1.23843E+00	-2.09230E+00
2.65191E-01	-8.06171E-02	1.23875E+00	-2.08529E+00
9.42718E-02	-2.69177E-01	1.23902E+00	-2.07841E+00
-1.59500E-01	-2.37590E-01	1.23922E+00	-2.07146E+00
-2.78642E-01	-1.39196E-02	1.23956E+00	-2.06452E+00
-1.65538E-01	2.06705E-01	1.23990E+00	-2.05775E+00
7.31380E-02	2.36130E-01	1.24016E+00	-2.05101E+00
2.24239E-01	5.85972E-02	1.24038E+00	-2.04426E+00
1.58098E-01	-1.59608E-01	1.24066E+00	-2.03752E+00
-5.98956E-02	-2.21075E-01	1.24091E+00	-2.03086E+00
-2.32085E-01	-7.09410E-02	1.24112E+00	-2.02418E+00
-2.04478E-01	1.59635E-01	1.24139E+00	-2.01747E+00
2.04316E-03	2.72643E-01	1.24172E+00	-2.01084E+00
2.16147E-01	1.74104E-01	1.24206E+00	-2.00430E+00
2.66584E-01	-5.19058E-02	1.24237E+00	-1.99784E+00
1.23593E-01	-2.22659E-01	1.24261E+00	-1.99142E+00
-8.61965E-02	-2.12204E-01	1.24283E+00	-1.98497E+00
-1.93587E-01	-4.86703E-02	1.24306E+00	-1.97853E+00
-1.25628E-01	1.20611E-01	1.24329E+00	-1.97211E+00
4.41707E-02	1.56049E-01	1.24354E+00	-1.96569E+00
1.65234E-01	3.56266E-02	1.24383E+00	-1.95931E+00
1.33467E-01	-1.35677E-01	1.24414E+00	-1.95298E+00
-3.02999E-02	-2.14543E-01	1.24443E+00	-1.94670E+00
-2.01410E-01	-1.30900E-01	1.24473E+00	-1.94044E+00
-2.48491E-01	6.10646E-02	1.24506E+00	-1.93423E+00
-1.31609E-01	2.25199E-01	1.24538E+00	-1.92808E+00
6.85002E-02	2.44502E-01	1.24566E+00	-1.92199E+00
2.09514E-01	1.07868E-01	1.24591E+00	-1.91593E+00
1.92848E-01	-7.99253E-02	1.24610E+00	-1.90988E+00
3.99642E-02	-1.74928E-01	1.24629E+00	-1.90379E+00
-1.19754E-01	-1.05017E-01	1.24651E+00	-1.89767E+00
-1.47362E-01	6.82306E-02	1.24679E+00	-1.89157E+00
-8.70485E-03	1.91195E-01	1.24712E+00	-1.88553E+00
1.87656E-01	1.40470E-01	1.24747E+00	-1.87958E+00
2.69787E-01	-6.80399E-02	1.24777E+00	-1.87369E+00
1.44543E-01	-2.78203E-01	1.24804E+00	-1.86783E+00
-1.13520E-01	-3.14267E-01	1.24829E+00	-1.86197E+00
-3.10409E-01	-1.30604E-01	1.24854E+00	-1.85612E+00
-2.89558E-01	1.38352E-01	1.24880E+00	-1.85028E+00
-6.87228E-02	2.81417E-01	1.24907E+00	-1.84446E+00
1.66084E-01	1.88449E-01	1.24936E+00	-1.83868E+00
2.14862E-01	-4.98311E-02	1.24965E+00	-1.83294E+00
3.83619E-02	-2.13781E-01	1.24993E+00	-1.82725E+00
-2.00927E-01	-1.44528E-01	1.25018E+00	-1.82157E+00
-2.75272E-01	1.11642E-01	1.25043E+00	-1.81590E+00
-9.22100E-02	3.35019E-01	1.25069E+00	-1.81024E+00
2.16637E-01	3.19435E-01	1.25096E+00	-1.80461E+00
4.01283E-01	5.43553E-02	1.25122E+00	-1.79901E+00
3.06345E-01	-2.58808E-01	1.25149E+00	-1.79342E+00
6.74648E-03	-3.74689E-01	1.25177E+00	-1.78786E+00
-2.53693E-01	-2.12513E-01	1.25205E+00	-1.78234E+00
-2.69809E-01	7.53748E-02	1.25231E+00	-1.77684E+00
-4.97253E-02	2.35582E-01	1.25257E+00	-1.77135E+00
1.94486E-01	1.32397E-01	1.25285E+00	-1.76587E+00
2.31837E-01	-1.35624E-01	1.25314E+00	-1.76044E+00
1.33716E-02	-3.21319E-01	1.25342E+00	-1.75504E+00
-2.83780E-01	-2.42620E-01	1.25369E+00	-1.74966E+00
-4.06206E-01	5.92915E-02	1.25396E+00	-1.74431E+00
