jMRUI Data Textfile
 
Filename: GPC.txt
 
PointsInDataset: 2048
DatasetsInFile: 1
SamplingInterval: 5.00000E-01
ZeroOrderPhase: 0E0
BeginTime: 0E0
TransmitterFrequency: 1.27740E+08
MagneticField: 0E0
TypeOfNucleus: 0E0
NameOfPatient: 
DateOfExperiment: 
Spectrometer: Vespa-Simulation
AdditionalInfo: see 'readme' file for Vespa-Simulation output synopsis
 
  
Signal and FFT 
sig(real)	sig(imag)	fft(real)	fft(imag)
Signal 1 out of 1 in file
9.00000E+00	-5.44360E-17	4.70398E+00	-1.46187E+01
7.38427E+00	-5.02097E+00	4.70182E+00	-1.45393E+01
3.25749E+00	-8.23915E+00	4.69979E+00	-1.44605E+01
-1.92381E+00	-8.57732E+00	4.69798E+00	-1.43826E+01
-6.36360E+00	-5.96421E+00	4.69619E+00	-1.43056E+01
-8.54852E+00	-1.34334E+00	4.69432E+00	-1.42294E+01
-7.76327E+00	3.66691E+00	4.69241E+00	-1.41539E+01
-4.32385E+00	7.33963E+00	4.69051E+00	-1.40791E+01
5.47060E-01	8.43419E+00	4.68864E+00	-1.40049E+01
5.15414E+00	6.61486E+00	4.68687E+00	-1.39314E+01
7.91917E+00	2.55191E+00	4.68523E+00	-1.38586E+01
7.92115E+00	-2.32422E+00	4.68364E+00	-1.37866E+01
5.20246E+00	-6.32606E+00	4.68199E+00	-1.37153E+01
7.39272E-01	-8.09274E+00	4.68030E+00	-1.36447E+01
-3.90827E+00	-7.05232E+00	4.67864E+00	-1.35748E+01
-7.14101E+00	-3.60591E+00	4.67696E+00	-1.35054E+01
-7.87070E+00	1.02534E+00	4.67521E+00	-1.34367E+01
-5.88569E+00	5.23221E+00	4.67350E+00	-1.33685E+01
-1.91014E+00	7.57642E+00	4.67199E+00	-1.33008E+01
2.65955E+00	7.28190E+00	4.67052E+00	-1.32339E+01
6.24456E+00	4.49089E+00	4.66906E+00	-1.31676E+01
7.62891E+00	2.00909E-01	4.66765E+00	-1.31019E+01
6.37141E+00	-4.09121E+00	4.66616E+00	-1.30369E+01
2.94515E+00	-6.91125E+00	4.66463E+00	-1.29724E+01
-1.43927E+00	-7.31356E+00	4.66314E+00	-1.29083E+01
-5.26101E+00	-5.19765E+00	4.66176E+00	-1.28448E+01
-7.21622E+00	-1.32950E+00	4.66049E+00	-1.27819E+01
-6.66243E+00	2.93500E+00	4.65926E+00	-1.27196E+01
-3.82896E+00	6.12497E+00	4.65801E+00	-1.26579E+01
2.75416E-01	7.16150E+00	4.65671E+00	-1.25968E+01
4.22127E+00	5.72218E+00	4.65541E+00	-1.25362E+01
6.65577E+00	2.33992E+00	4.65412E+00	-1.24762E+01
6.76628E+00	-1.79336E+00	4.65269E+00	-1.24167E+01
4.55111E+00	-5.24618E+00	4.65111E+00	-1.23576E+01
8.07256E-01	-6.84337E+00	4.64965E+00	-1.22987E+01
-3.15544E+00	-6.06519E+00	4.64841E+00	-1.22402E+01
-5.97261E+00	-3.21600E+00	4.64735E+00	-1.21824E+01
-6.69453E+00	6.93433E-01	4.64638E+00	-1.21253E+01
-5.10587E+00	4.30369E+00	4.64515E+00	-1.20688E+01
-1.78822E+00	6.37957E+00	4.64360E+00	-1.20127E+01
2.09183E+00	6.23192E+00	4.64210E+00	-1.19566E+01
5.19302E+00	3.94609E+00	4.64092E+00	-1.19008E+01
6.46220E+00	3.40603E-01	4.63998E+00	-1.18456E+01
5.49207E+00	-3.32575E+00	4.63913E+00	-1.17911E+01
2.65075E+00	-5.79262E+00	4.63828E+00	-1.17371E+01
-1.05678E+00	-6.23151E+00	4.63738E+00	-1.16837E+01
-4.34350E+00	-4.52326E+00	4.63625E+00	-1.16309E+01
-6.08718E+00	-1.28809E+00	4.63488E+00	-1.15783E+01
-5.71297E+00	2.33915E+00	4.63348E+00	-1.15258E+01
-3.38241E+00	5.10637E+00	4.63231E+00	-1.14736E+01
7.36328E-02	6.07664E+00	4.63134E+00	-1.14219E+01
3.45045E+00	4.94468E+00	4.63043E+00	-1.13706E+01
5.58958E+00	2.13199E+00	4.62952E+00	-1.13199E+01
5.77552E+00	-1.36906E+00	4.62852E+00	-1.12697E+01
3.97486E+00	-4.34539E+00	4.62738E+00	-1.12198E+01
8.37082E-01	-5.78279E+00	4.62621E+00	-1.11701E+01
-2.53937E+00	-5.21161E+00	4.62508E+00	-1.11207E+01
-4.99095E+00	-2.85936E+00	4.62409E+00	-1.10715E+01
-5.69014E+00	4.38310E-01	4.62332E+00	-1.10227E+01
-4.42407E+00	3.53410E+00	4.62276E+00	-1.09744E+01
-1.65825E+00	5.36775E+00	4.62226E+00	-1.09267E+01
1.63408E+00	5.32921E+00	4.62166E+00	-1.08796E+01
4.31378E+00	3.46088E+00	4.62082E+00	-1.08329E+01
5.47013E+00	4.32933E-01	4.61973E+00	-1.07866E+01
4.72961E+00	-2.69653E+00	4.61848E+00	-1.07403E+01
2.37627E+00	-4.85096E+00	4.61728E+00	-1.06942E+01
-7.56645E-01	-5.30577E+00	4.61631E+00	-1.06482E+01
-3.58085E+00	-3.93111E+00	4.61560E+00	-1.06026E+01
-5.13111E+00	-1.22763E+00	4.61489E+00	-1.05577E+01
-4.89486E+00	1.85523E+00	4.61404E+00	-1.05131E+01
-2.98108E+00	4.25296E+00	4.61304E+00	-1.04688E+01
-7.31988E-02	5.15255E+00	4.61188E+00	-1.04247E+01
2.81438E+00	4.26843E+00	4.61066E+00	-1.03807E+01
4.69044E+00	1.93200E+00	4.60967E+00	-1.03366E+01
4.92621E+00	-1.03160E+00	4.60915E+00	-1.02926E+01
3.46629E+00	-3.59469E+00	4.60915E+00	-1.02492E+01
8.38682E-01	-4.88313E+00	4.60945E+00	-1.02066E+01
-2.03614E+00	-4.47436E+00	4.60968E+00	-1.01651E+01
-4.16680E+00	-2.53514E+00	4.60934E+00	-1.01243E+01
-4.83306E+00	2.44615E-01	4.60810E+00	-1.00840E+01
-3.82900E+00	2.89692E+00	4.60606E+00	-1.00434E+01
-1.52542E+00	4.51300E+00	4.60382E+00	-1.00019E+01
1.26620E+00	4.55380E+00	4.60233E+00	-9.95982E+00
3.57932E+00	3.02996E+00	4.60207E+00	-9.91819E+00
4.62712E+00	4.89121E-01	4.60184E+00	-9.87797E+00
4.06929E+00	-2.18012E+00	4.60062E+00	-9.83781E+00
2.12247E+00	-4.05894E+00	4.59985E+00	-9.79686E+00
-5.22902E-01	-4.51436E+00	4.60028E+00	-9.75636E+00
-2.94755E+00	-3.41218E+00	4.60119E+00	-9.71718E+00
-4.32200E+00	-1.15518E+00	4.60170E+00	-9.67924E+00
-4.19054E+00	1.46341E+00	4.60133E+00	-9.64199E+00
-2.62189E+00	3.53848E+00	4.60008E+00	-9.60479E+00
-1.77099E-01	4.36595E+00	4.59830E+00	-9.56719E+00
2.29042E+00	3.68094E+00	4.59653E+00	-9.52906E+00
3.93274E+00	1.74241E+00	4.59519E+00	-9.49064E+00
4.19877E+00	-7.64446E-01	4.59443E+00	-9.45234E+00
3.01849E+00	-2.96966E+00	4.59412E+00	-9.41448E+00
8.19835E-01	-4.12051E+00	4.59402E+00	-9.37722E+00
-1.62604E+00	-3.83818E+00	4.59386E+00	-9.34055E+00
-3.47540E+00	-2.24196E+00	4.59343E+00	-9.30429E+00
-4.10224E+00	9.94312E-02	4.59277E+00	-9.26815E+00
-3.31029E+00	2.37018E+00	4.59214E+00	-9.23205E+00
-1.39380E+00	3.79141E+00	4.59162E+00	-9.19617E+00
9.71621E-01	3.88833E+00	4.59116E+00	-9.16054E+00
2.96645E+00	2.64820E+00	4.59074E+00	-9.12520E+00
3.91128E+00	5.17926E-01	4.59031E+00	-9.09020E+00
3.49804E+00	-1.75713E+00	4.58978E+00	-9.05551E+00
1.88975E+00	-3.39320E+00	4.58909E+00	-9.02102E+00
-3.42546E-01	-3.83829E+00	4.58827E+00	-8.98665E+00
-2.42232E+00	-2.95817E+00	4.58741E+00	-8.95231E+00
-3.63778E+00	-1.07571E+00	4.58662E+00	-8.91802E+00
-3.58482E+00	1.14690E+00	4.58597E+00	-8.88384E+00
-2.30139E+00	2.94093E+00	4.58550E+00	-8.84988E+00
-2.47607E-01	3.69687E+00	4.58514E+00	-8.81622E+00
1.85930E+00	3.17131E+00	4.58479E+00	-8.78290E+00
3.29475E+00	1.56468E+00	4.58436E+00	-8.74982E+00
3.57618E+00	-5.54232E-01	4.58391E+00	-8.71694E+00
2.62495E+00	-2.44985E+00	4.58344E+00	-8.68423E+00
7.86945E-01	-3.47447E+00	4.58301E+00	-8.65167E+00
-1.29271E+00	-3.28973E+00	4.58266E+00	-8.61938E+00
-2.89589E+00	-1.97802E+00	4.58225E+00	-8.58739E+00
-3.47951E+00	-7.31582E-03	4.58170E+00	-8.55556E+00
-2.85892E+00	1.93518E+00	4.58117E+00	-8.52381E+00
-1.26603E+00	3.18272E+00	4.58072E+00	-8.49224E+00
7.36777E-01	3.31766E+00	4.58025E+00	-8.46093E+00
2.45540E+00	2.31100E+00	4.57969E+00	-8.42976E+00
3.30387E+00	5.26266E-01	4.57918E+00	-8.39869E+00
3.00433E+00	-1.41141E+00	4.57873E+00	-8.36786E+00
1.67755E+00	-2.83411E+00	4.57818E+00	-8.33728E+00
-2.04565E-01	-3.26121E+00	4.57745E+00	-8.30671E+00
-1.98724E+00	-2.56160E+00	4.57688E+00	-8.27596E+00
-3.05956E+00	-9.93056E-01	4.57680E+00	-8.24544E+00
-3.06430E+00	8.92130E-01	4.57684E+00	-8.21557E+00
-2.01646E+00	2.44151E+00	4.57656E+00	-8.18614E+00
-2.92346E-01	3.12815E+00	4.57599E+00	-8.15684E+00
1.50531E+00	2.72966E+00	4.57513E+00	-8.12745E+00
2.75791E+00	1.39981E+00	4.57441E+00	-8.09774E+00
3.04375E+00	-3.89946E-01	4.57421E+00	-8.06819E+00
2.27976E+00	-2.01802E+00	4.57417E+00	-8.03921E+00
7.44640E-01	-2.92758E+00	4.57388E+00	-8.01064E+00
-1.02232E+00	-2.81742E+00	4.57334E+00	-7.98215E+00
-2.41060E+00	-1.74127E+00	4.57275E+00	-7.95365E+00
-2.94926E+00	-8.38134E-02	4.57219E+00	-7.92522E+00
-2.46654E+00	1.57660E+00	4.57165E+00	-7.89686E+00
-1.14430E+00	2.66955E+00	4.57120E+00	-7.86856E+00
5.50453E-01	2.82869E+00	4.57090E+00	-7.84041E+00
2.02973E+00	2.01376E+00	4.57071E+00	-7.81252E+00
2.78879E+00	5.19865E-01	4.57051E+00	-7.78490E+00
2.57815E+00	-1.12931E+00	4.57024E+00	-7.75750E+00
1.48527E+00	-2.36489E+00	4.56988E+00	-7.73023E+00
-1.00735E-01	-2.76894E+00	4.56951E+00	-7.70307E+00
-1.62730E+00	-2.21573E+00	4.56910E+00	-7.67606E+00
-2.57128E+00	-9.10087E-01	4.56864E+00	-7.64906E+00
-2.61739E+00	6.87797E-01	4.56836E+00	-7.62211E+00
-1.76378E+00	2.02454E+00	4.56823E+00	-7.59544E+00
-3.17658E-01	2.64507E+00	4.56803E+00	-7.56908E+00
1.21503E+00	2.34742E+00	4.56767E+00	-7.54286E+00
2.30650E+00	1.24813E+00	4.56730E+00	-7.51668E+00
2.58874E+00	-2.62720E-01	4.56695E+00	-7.49062E+00
1.97751E+00	-1.65968E+00	4.56658E+00	-7.46471E+00
6.96569E-01	-2.46496E+00	4.56619E+00	-7.43886E+00
-8.03662E-01	-2.41103E+00	4.56591E+00	-7.41308E+00
-2.00447E+00	-1.52983E+00	4.56571E+00	-7.38751E+00
-2.49809E+00	-1.36899E-01	4.56551E+00	-7.36220E+00
-2.12598E+00	1.28134E+00	4.56521E+00	-7.33704E+00
-1.02946E+00	2.23737E+00	4.56492E+00	-7.31202E+00
4.03433E-01	2.41005E+00	4.56451E+00	-7.28721E+00
1.67555E+00	1.75230E+00	4.56394E+00	-7.26248E+00
2.35233E+00	5.02938E-01	4.56328E+00	-7.23763E+00
2.21060E+00	-8.99698E-01	4.56277E+00	-7.21277E+00
1.31180E+00	-1.97145E+00	4.56240E+00	-7.18801E+00
-2.35605E-02	-2.34936E+00	4.56209E+00	-7.16346E+00
-1.33002E+00	-1.91444E+00	4.56175E+00	-7.13905E+00
-2.15924E+00	-8.28855E-01	4.56141E+00	-7.11471E+00
-2.23401E+00	5.24571E-01	4.56115E+00	-7.09047E+00
-1.54028E+00	1.67673E+00	4.56094E+00	-7.06640E+00
-3.28326E-01	2.23502E+00	4.56073E+00	-7.04246E+00
9.77514E-01	2.01694E+00	4.56057E+00	-7.01865E+00
1.92725E+00	1.10949E+00	4.56046E+00	-6.99505E+00
2.20023E+00	-1.64892E-01	4.56029E+00	-6.97172E+00
1.71323E+00	-1.36278E+00	4.55990E+00	-6.94854E+00
6.45491E-01	-2.07388E+00	4.55932E+00	-6.92528E+00
-6.27392E-01	-2.06167E+00	4.55883E+00	-6.90180E+00
-1.66495E+00	-1.34152E+00	4.55872E+00	-6.87837E+00
-2.11446E+00	-1.71824E-01	4.55879E+00	-6.85534E+00
-1.83071E+00	1.03866E+00	4.55875E+00	-6.83262E+00
-9.22586E-01	1.87353E+00	4.55860E+00	-6.81007E+00
2.88272E-01	2.05188E+00	4.55835E+00	-6.78767E+00
1.38116E+00	1.52276E+00	4.55796E+00	-6.76536E+00
1.98274E+00	4.78844E-01	4.55747E+00	-6.74304E+00
1.89392E+00	-7.13274E-01	4.55699E+00	-6.72070E+00
