jMRUI Data Textfile
 
Filename: mI.txt
 
PointsInDataset: 2048
DatasetsInFile: 1
SamplingInterval: 5.00000E-01
ZeroOrderPhase: 0E0
BeginTime: 0E0
TransmitterFrequency: 1.27740E+08
MagneticField: 0E0
TypeOfNucleus: 0E0
NameOfPatient: 
DateOfExperiment: 
Spectrometer: Vespa-Simulation
AdditionalInfo: see 'readme' file for Vespa-Simulation output synopsis
 
  
Signal and FFT 
sig(real)	sig(imag)	fft(real)	fft(imag)
Signal 1 out of 1 in file
3.85242E+00	-1.29683E-01	1.96069E+00	-9.61475E+00
3.38832E+00	-1.67583E+00	1.95742E+00	-9.53353E+00
2.32469E+00	-2.84069E+00	1.95428E+00	-9.45374E+00
9.06076E-01	-3.41095E+00	1.95124E+00	-9.37535E+00
-5.60777E-01	-3.31239E+00	1.94830E+00	-9.29832E+00
-1.77955E+00	-2.61826E+00	1.94545E+00	-9.22258E+00
-2.52993E+00	-1.52264E+00	1.94271E+00	-9.14811E+00
-2.71058E+00	-2.87609E-01	1.94007E+00	-9.07489E+00
-2.35122E+00	8.20861E-01	1.93751E+00	-9.00288E+00
-1.59333E+00	1.59216E+00	1.93504E+00	-8.93204E+00
-6.47301E-01	1.91172E+00	1.93265E+00	-8.86234E+00
2.61483E-01	1.77542E+00	1.93035E+00	-8.79375E+00
9.43724E-01	1.27759E+00	1.92812E+00	-8.72626E+00
1.28295E+00	5.78299E-01	1.92597E+00	-8.65981E+00
1.25141E+00	-1.39479E-01	1.92389E+00	-8.59440E+00
9.04426E-01	-7.11949E-01	1.92188E+00	-8.52999E+00
3.57760E-01	-1.02644E+00	1.91994E+00	-8.46656E+00
-2.44291E-01	-1.03787E+00	1.91807E+00	-8.40409E+00
-7.61800E-01	-7.68938E-01	1.91626E+00	-8.34257E+00
-1.08608E+00	-2.96906E-01	1.91450E+00	-8.28195E+00
-1.15631E+00	2.67855E-01	1.91280E+00	-8.22221E+00
-9.65005E-01	8.05851E-01	1.91116E+00	-8.16335E+00
-5.53525E-01	1.21029E+00	1.90957E+00	-8.10534E+00
-5.42262E-04	1.40373E+00	1.90804E+00	-8.04815E+00
5.93521E-01	1.34822E+00	1.90656E+00	-7.99178E+00
1.12342E+00	1.04891E+00	1.90513E+00	-7.93622E+00
1.49543E+00	5.51753E-01	1.90372E+00	-7.88143E+00
1.64155E+00	-6.41724E-02	1.90238E+00	-7.82739E+00
1.53036E+00	-6.98692E-01	1.90106E+00	-7.77411E+00
1.17298E+00	-1.24611E+00	1.89977E+00	-7.72154E+00
6.22853E-01	-1.61265E+00	1.89851E+00	-7.66967E+00
-3.15535E-02	-1.73316E+00	1.89730E+00	-7.61849E+00
-6.80931E-01	-1.58432E+00	1.89611E+00	-7.56798E+00
-1.21446E+00	-1.19092E+00	1.89496E+00	-7.51812E+00
-1.54112E+00	-6.23148E-01	1.89387E+00	-7.46889E+00
-1.60829E+00	1.56318E-02	1.89282E+00	-7.42031E+00
-1.41344E+00	6.09045E-01	1.89180E+00	-7.37236E+00
-1.00544E+00	1.05159E+00	1.89082E+00	-7.32501E+00
-4.74511E-01	1.27103E+00	1.88989E+00	-7.27827E+00
6.76222E-02	1.24393E+00	1.88899E+00	-7.23213E+00
5.12648E-01	1.00003E+00	1.88812E+00	-7.18659E+00
7.80178E-01	6.14252E-01	1.88725E+00	-7.14163E+00
8.35278E-01	1.87882E-01	1.88637E+00	-7.09720E+00
6.94972E-01	-1.76393E-01	1.88552E+00	-7.05330E+00
4.21739E-01	-3.99276E-01	1.88469E+00	-7.00992E+00
1.05904E-01	-4.43330E-01	1.88388E+00	-6.96705E+00
-1.58472E-01	-3.20249E-01	1.88311E+00	-6.92466E+00
-2.97927E-01	-8.54415E-02	1.88238E+00	-6.88276E+00
-2.77733E-01	1.78507E-01	1.88170E+00	-6.84136E+00
-1.09346E-01	3.84782E-01	1.88105E+00	-6.80047E+00
1.54489E-01	4.65592E-01	1.88042E+00	-6.76006E+00
4.35228E-01	3.89510E-01	1.87980E+00	-6.72014E+00
6.50231E-01	1.68649E-01	1.87919E+00	-6.68067E+00
7.34613E-01	-1.45804E-01	1.87858E+00	-6.64165E+00
6.57620E-01	-4.78105E-01	1.87798E+00	-6.60305E+00
4.29458E-01	-7.48064E-01	1.87741E+00	-6.56488E+00
9.72670E-02	-8.91476E-01	1.87686E+00	-6.52713E+00
-2.67996E-01	-8.75313E-01	1.87633E+00	-6.48979E+00
-5.90022E-01	-7.04283E-01	1.87582E+00	-6.45287E+00
-8.05677E-01	-4.17517E-01	1.87533E+00	-6.41636E+00
-8.78968E-01	-7.70443E-02	1.87485E+00	-6.38024E+00
-8.07300E-01	2.48516E-01	1.87437E+00	-6.34451E+00
-6.18992E-01	5.00309E-01	1.87390E+00	-6.30915E+00
-3.63545E-01	6.41778E-01	1.87346E+00	-6.27415E+00
-9.78551E-02	6.64338E-01	1.87305E+00	-6.23953E+00
1.27793E-01	5.85714E-01	1.87265E+00	-6.20527E+00
2.80431E-01	4.42041E-01	1.87227E+00	-6.17137E+00
3.49300E-01	2.76548E-01	1.87191E+00	-6.13784E+00
3.44729E-01	1.28098E-01	1.87155E+00	-6.10466E+00
2.91853E-01	2.25292E-02	1.87120E+00	-6.07182E+00
2.21581E-01	-3.14084E-02	1.87084E+00	-6.03932E+00
1.61531E-01	-4.10181E-02	1.87050E+00	-6.00712E+00
1.29301E-01	-2.46884E-02	1.87017E+00	-5.97525E+00
1.29469E-01	-4.79429E-03	1.86987E+00	-5.94371E+00
1.54574E-01	-6.78639E-04	1.86956E+00	-5.91248E+00
1.89148E-01	-2.36106E-02	1.86926E+00	-5.88156E+00
2.15269E-01	-7.47049E-02	1.86897E+00	-5.85095E+00
2.17873E-01	-1.45918E-01	1.86865E+00	-5.82064E+00
1.88454E-01	-2.23251E-01	1.86834E+00	-5.79057E+00
1.26440E-01	-2.90997E-01	1.86808E+00	-5.76078E+00
3.83405E-02	-3.35623E-01	1.86783E+00	-5.73127E+00
-6.46985E-02	-3.48351E-01	1.86762E+00	-5.70205E+00
-1.69782E-01	-3.26020E-01	1.86744E+00	-5.67311E+00
-2.64806E-01	-2.70475E-01	1.86728E+00	-5.64449E+00
-3.39981E-01	-1.87059E-01	1.86710E+00	-5.61616E+00
-3.88159E-01	-8.30914E-02	1.86691E+00	-5.58809E+00
-4.04504E-01	3.31714E-02	1.86672E+00	-5.56030E+00
-3.85968E-01	1.52781E-01	1.86649E+00	-5.53277E+00
-3.31213E-01	2.65848E-01	1.86624E+00	-5.50544E+00
-2.41285E-01	3.61198E-01	1.86602E+00	-5.47832E+00
-1.20856E-01	4.26766E-01	1.86585E+00	-5.45144E+00
2.05006E-02	4.51003E-01	1.86568E+00	-5.42482E+00
1.67856E-01	4.25340E-01	1.86552E+00	-5.39842E+00
3.01836E-01	3.47160E-01	1.86540E+00	-5.37224E+00
4.01416E-01	2.22356E-01	1.86531E+00	-5.34632E+00
4.48184E-01	6.63321E-02	1.86524E+00	-5.32067E+00
4.31094E-01	-9.72523E-02	1.86515E+00	-5.29527E+00
3.50498E-01	-2.40388E-01	1.86503E+00	-5.27012E+00
2.19941E-01	-3.36588E-01	1.86487E+00	-5.24517E+00
6.47148E-02	-3.67475E-01	1.86471E+00	-5.22039E+00
-8.28761E-02	-3.28197E-01	1.86456E+00	-5.19580E+00
-1.90889E-01	-2.30056E-01	1.86443E+00	-5.17142E+00
-2.35914E-01	-9.90697E-02	1.86431E+00	-5.14723E+00
-2.09875E-01	2.96483E-02	1.86421E+00	-5.12324E+00
-1.23311E-01	1.20538E-01	1.86414E+00	-5.09944E+00
-3.86412E-03	1.47263E-01	1.86409E+00	-5.07586E+00
1.10174E-01	1.00671E-01	1.86405E+00	-5.05250E+00
1.79837E-01	-7.37030E-03	1.86401E+00	-5.02935E+00
1.76531E-01	-1.45732E-01	1.86395E+00	-5.00640E+00
9.10544E-02	-2.71386E-01	1.86389E+00	-4.98364E+00
-6.21726E-02	-3.40752E-01	1.86382E+00	-4.96106E+00
-2.47178E-01	-3.22067E-01	1.86373E+00	-4.93865E+00
-4.14796E-01	-2.05402E-01	1.86365E+00	-4.91640E+00
-5.15317E-01	-7.29371E-03	1.86359E+00	-4.89432E+00
-5.12194E-01	2.31748E-01	1.86354E+00	-4.87241E+00
-3.92958E-01	4.56396E-01	1.86349E+00	-4.85068E+00
-1.74248E-01	6.10382E-01	1.86346E+00	-4.82911E+00
1.00917E-01	6.51336E-01	1.86344E+00	-4.80769E+00
3.72942E-01	5.62495E-01	1.86346E+00	-4.78645E+00
5.80394E-01	3.58092E-01	1.86351E+00	-4.76540E+00
6.75602E-01	8.06583E-02	1.86356E+00	-4.74455E+00
6.36969E-01	-2.09263E-01	1.86360E+00	-4.72391E+00
4.74564E-01	-4.48072E-01	1.86360E+00	-4.70345E+00
2.27529E-01	-5.85061E-01	1.86355E+00	-4.68315E+00
-4.60748E-02	-5.94837E-01	1.86346E+00	-4.66297E+00
-2.84224E-01	-4.82988E-01	1.86336E+00	-4.64290E+00
-4.36389E-01	-2.83586E-01	1.86323E+00	-4.62293E+00
-4.75632E-01	-4.94242E-02	1.86313E+00	-4.60302E+00
-4.03998E-01	1.62182E-01	1.86313E+00	-4.58320E+00
-2.50141E-01	3.04001E-01	1.86324E+00	-4.56357E+00
-6.01157E-02	3.50037E-01	1.86340E+00	-4.54414E+00
1.15573E-01	3.00222E-01	1.86359E+00	-4.52493E+00
2.35150E-01	1.78120E-01	1.86379E+00	-4.50596E+00
2.75233E-01	2.25913E-02	1.86393E+00	-4.48723E+00
2.34705E-01	-1.23704E-01	1.86393E+00	-4.46869E+00
1.32312E-01	-2.25499E-01	1.86378E+00	-4.45022E+00
-6.65571E-04	-2.62763E-01	1.86357E+00	-4.43172E+00
-1.30004E-01	-2.33442E-01	1.86344E+00	-4.41322E+00
-2.27456E-01	-1.50980E-01	1.86344E+00	-4.39483E+00
-2.76364E-01	-3.82064E-02	1.86347E+00	-4.37663E+00
-2.73139E-01	8.00658E-02	1.86350E+00	-4.35855E+00
-2.24782E-01	1.83221E-01	1.86359E+00	-4.34056E+00
-1.44134E-01	2.58123E-01	1.86376E+00	-4.32273E+00
-4.50020E-02	2.99089E-01	1.86398E+00	-4.30513E+00
6.10042E-02	3.05435E-01	1.86415E+00	-4.28776E+00
1.65135E-01	2.78288E-01	1.86422E+00	-4.27056E+00
2.59788E-01	2.18470E-01	1.86418E+00	-4.25344E+00
3.36093E-01	1.26599E-01	1.86412E+00	-4.23635E+00
3.82352E-01	5.39312E-03	1.86408E+00	-4.21932E+00
3.84815E-01	-1.36949E-01	1.86406E+00	-4.20238E+00
3.31189E-01	-2.84155E-01	1.86407E+00	-4.18553E+00
2.16029E-01	-4.11874E-01	1.86414E+00	-4.16878E+00
4.59498E-02	-4.91363E-01	1.86423E+00	-4.15218E+00
-1.57371E-01	-4.96288E-01	1.86434E+00	-4.13572E+00
-3.58622E-01	-4.11233E-01	1.86442E+00	-4.11939E+00
-5.15077E-01	-2.38972E-01	1.86449E+00	-4.10318E+00
-5.86653E-01	-3.85618E-03	1.86456E+00	-4.08706E+00
-5.47247E-01	2.50599E-01	1.86462E+00	-4.07105E+00
-3.93991E-01	4.70147E-01	1.86469E+00	-4.05513E+00
-1.51307E-01	6.02588E-01	1.86476E+00	-4.03931E+00
1.32320E-01	6.11696E-01	1.86485E+00	-4.02361E+00
3.94291E-01	4.88156E-01	1.86493E+00	-4.00802E+00
5.72933E-01	2.54374E-01	1.86500E+00	-3.99254E+00
6.23391E-01	-3.90015E-02	1.86506E+00	-3.97715E+00
5.30122E-01	-3.24348E-01	1.86511E+00	-3.96186E+00
3.12309E-01	-5.33492E-01	1.86516E+00	-3.94664E+00
2.03650E-02	-6.15045E-01	1.86522E+00	-3.93151E+00
-2.76053E-01	-5.47971E-01	1.86530E+00	-3.91646E+00
-5.05081E-01	-3.47522E-01	1.86540E+00	-3.90151E+00
-6.10878E-01	-6.19298E-02	1.86551E+00	-3.88669E+00
-5.67743E-01	2.39530E-01	1.86560E+00	-3.87196E+00
-3.86529E-01	4.83913E-01	1.86568E+00	-3.85733E+00
-1.11647E-01	6.12820E-01	1.86576E+00	-3.84277E+00
1.90411E-01	5.96678E-01	1.86585E+00	-3.82831E+00
4.48073E-01	4.41368E-01	1.86593E+00	-3.81395E+00
6.02159E-01	1.85770E-01	1.86601E+00	-3.79967E+00
6.19930E-01	-1.08881E-01	1.86609E+00	-3.78546E+00
5.01765E-01	-3.74744E-01	1.86617E+00	-3.77135E+00
2.79326E-01	-5.53909E-01	1.86625E+00	-3.75732E+00
6.15071E-03	-6.11468E-01	1.86632E+00	-3.74337E+00
-2.56407E-01	-5.42047E-01	1.86640E+00	-3.72949E+00
-4.53969E-01	-3.68690E-01	1.86649E+00	-3.71568E+00
-5.50992E-01	-1.34917E-01	1.86660E+00	-3.70196E+00
-5.36699E-01	1.07071E-01	1.86671E+00	-3.68835E+00
-4.24719E-01	3.09030E-01	1.86681E+00	-3.67481E+00
-2.46959E-01	4.36680E-01	1.86691E+00	-3.66134E+00
-4.41715E-02	4.75055E-01	1.86704E+00	-3.64795E+00
1.43973E-01	4.28589E-01	1.86716E+00	-3.63467E+00
2.86767E-01	3.16838E-01	1.86726E+00	-3.62148E+00
3.66860E-01	1.67658E-01	1.86734E+00	-3.60836E+00
3.80589E-01	1.02479E-02	1.86742E+00	-3.59529E+00
