jMRUI Data Textfile
 
Filename: NAA.txt
 
PointsInDataset: 2048
DatasetsInFile: 1
SamplingInterval: 5.00000E-01
ZeroOrderPhase: 0E0
BeginTime: 0E0
TransmitterFrequency: 1.27740E+08
MagneticField: 0E0
TypeOfNucleus: 0E0
NameOfPatient: 
DateOfExperiment: 
Spectrometer: Vespa-Simulation
AdditionalInfo: see 'readme' file for Vespa-Simulation output synopsis
 
  
Signal and FFT 
sig(real)	sig(imag)	fft(real)	fft(imag)
Signal 1 out of 1 in file
4.60096E+00	-2.69038E-01	2.67173E+00	-4.82024E+00
2.10352E+00	-2.63141E+00	2.64969E+00	-4.76929E+00
-2.25753E+00	-2.65396E+00	2.62803E+00	-4.71967E+00
-3.83996E+00	-2.86131E-01	2.60703E+00	-4.67124E+00
-1.16978E+00	2.30393E+00	2.58687E+00	-4.62396E+00
2.65364E+00	2.59949E+00	2.56755E+00	-4.57781E+00
3.57494E+00	1.88828E-01	2.54909E+00	-4.53269E+00
9.28096E-01	-2.60299E+00	2.53156E+00	-4.48853E+00
-2.21738E+00	-2.90149E+00	2.51493E+00	-4.44543E+00
-2.65299E+00	-3.24858E-01	2.49907E+00	-4.40330E+00
-3.23889E-01	2.42101E+00	2.48393E+00	-4.36203E+00
2.04872E+00	2.35433E+00	2.46959E+00	-4.32150E+00
2.08634E+00	-4.65971E-01	2.45608E+00	-4.28178E+00
4.55649E-02	-2.90343E+00	2.44337E+00	-4.24292E+00
-1.82996E+00	-2.22083E+00	2.43134E+00	-4.20491E+00
-1.75089E+00	8.04179E-01	2.41994E+00	-4.16769E+00
-4.32304E-03	2.74486E+00	2.40912E+00	-4.13122E+00
1.57322E+00	1.43826E+00	2.39887E+00	-4.09546E+00
1.45072E+00	-1.56056E+00	2.38917E+00	-4.06038E+00
-2.01952E-01	-2.80886E+00	2.38002E+00	-4.02596E+00
-1.73120E+00	-9.29008E-01	2.37140E+00	-3.99224E+00
-1.57941E+00	1.88943E+00	2.36326E+00	-3.95924E+00
1.69614E-01	2.47560E+00	2.35545E+00	-3.92693E+00
1.75918E+00	2.66218E-01	2.34791E+00	-3.89519E+00
1.45761E+00	-2.18273E+00	2.34072E+00	-3.86388E+00
-5.63360E-01	-2.16528E+00	2.33401E+00	-3.83302E+00
-2.20429E+00	2.14073E-01	2.32778E+00	-3.80279E+00
-1.57588E+00	2.31556E+00	2.32184E+00	-3.77323E+00
8.36839E-01	1.92915E+00	2.31607E+00	-3.74420E+00
2.47991E+00	-4.38789E-01	2.31053E+00	-3.71561E+00
1.44493E+00	-2.27546E+00	2.30525E+00	-3.68744E+00
-1.30534E+00	-1.74785E+00	2.30022E+00	-3.65970E+00
-2.81954E+00	5.25986E-01	2.29545E+00	-3.63238E+00
-1.36258E+00	2.25551E+00	2.29091E+00	-3.60549E+00
1.59087E+00	1.79027E+00	2.28657E+00	-3.57902E+00
2.89275E+00	-3.55703E-01	2.28241E+00	-3.55291E+00
1.15292E+00	-2.09774E+00	2.27846E+00	-3.52715E+00
-1.74911E+00	-1.79413E+00	2.27475E+00	-3.50175E+00
-2.74204E+00	2.22653E-01	2.27123E+00	-3.47675E+00
-8.83623E-01	1.98592E+00	2.26787E+00	-3.45212E+00
1.73513E+00	1.78812E+00	2.26463E+00	-3.42784E+00
2.37006E+00	-1.45576E-01	2.26153E+00	-3.40381E+00
5.44835E-01	-1.85614E+00	2.25867E+00	-3.38012E+00
-1.63416E+00	-1.61543E+00	2.25594E+00	-3.35682E+00
-1.89495E+00	2.80342E-01	2.25329E+00	-3.33381E+00
-1.71614E-01	1.79413E+00	2.25079E+00	-3.31109E+00
1.53975E+00	1.30949E+00	2.24839E+00	-3.28871E+00
1.44463E+00	-6.05489E-01	2.24604E+00	-3.26661E+00
-2.09856E-01	-1.80033E+00	2.24376E+00	-3.24472E+00
-1.56035E+00	-9.21876E-01	2.24162E+00	-3.22305E+00
-1.17355E+00	1.05090E+00	2.23960E+00	-3.20166E+00
4.95123E-01	1.87534E+00	2.23763E+00	-3.18053E+00
1.65294E+00	5.65830E-01	2.23575E+00	-3.15958E+00
1.05612E+00	-1.46238E+00	2.23400E+00	-3.13885E+00
-7.12713E-01	-1.94068E+00	2.23235E+00	-3.11840E+00
-1.83513E+00	-2.73256E-01	2.23072E+00	-3.09820E+00
-1.10742E+00	1.77635E+00	2.22913E+00	-3.07813E+00
8.01422E-01	1.99861E+00	2.22770E+00	-3.05822E+00
1.97341E+00	1.32559E-01	2.22639E+00	-3.03858E+00
1.17462E+00	-1.86631E+00	2.22513E+00	-3.01919E+00
-8.40258E-01	-1.92527E+00	2.22389E+00	-3.00000E+00
-2.03752E+00	-2.33393E-02	2.22270E+00	-2.98100E+00
-1.17735E+00	1.84952E+00	2.22156E+00	-2.96217E+00
8.74450E-01	1.80607E+00	2.22045E+00	-2.94353E+00
2.01206E+00	-2.41054E-02	2.21938E+00	-2.92504E+00
1.07875E+00	-1.72025E+00	2.21838E+00	-2.90669E+00
-9.20998E-01	-1.59305E+00	2.21746E+00	-2.88853E+00
-1.88931E+00	1.29314E-01	2.21655E+00	-2.87057E+00
-8.53823E-01	1.62448E+00	2.21563E+00	-2.85273E+00
1.03280E+00	1.38661E+00	2.21478E+00	-2.83498E+00
1.76196E+00	-2.63597E-01	2.21401E+00	-2.81738E+00
6.11242E-01	-1.57379E+00	2.21330E+00	-2.79995E+00
-1.13736E+00	-1.19969E+00	2.21260E+00	-2.78265E+00
-1.61985E+00	4.21236E-01	2.21199E+00	-2.76546E+00
-3.72784E-01	1.56270E+00	2.21148E+00	-2.74847E+00
1.23310E+00	1.03362E+00	2.21095E+00	-2.73170E+00
1.49922E+00	-5.80901E-01	2.21033E+00	-2.71503E+00
1.86913E-01	-1.56022E+00	2.20977E+00	-2.69835E+00
-1.28737E+00	-8.81603E-01	2.20938E+00	-2.68181E+00
-1.38451E+00	7.06408E-01	2.20902E+00	-2.66555E+00
-4.63469E-02	1.50870E+00	2.20852E+00	-2.64941E+00
1.29045E+00	7.03844E-01	2.20805E+00	-2.63322E+00
1.23162E+00	-8.03531E-01	2.20775E+00	-2.61715E+00
-1.20511E-01	-1.39286E+00	2.20748E+00	-2.60135E+00
-1.30545E+00	-4.75324E-01	2.20703E+00	-2.58566E+00
-1.06626E+00	9.13112E-01	2.20662E+00	-2.56981E+00
3.17048E-01	1.27192E+00	2.20652E+00	-2.55412E+00
1.33402E+00	2.52303E-01	2.20639E+00	-2.53883E+00
8.71959E-01	-1.00815E+00	2.20587E+00	-2.52355E+00
-5.70455E-01	-1.14086E+00	2.20562E+00	-2.50783E+00
-1.40565E+00	-8.97294E-03	2.20592E+00	-2.49271E+00
-6.82586E-01	1.16849E+00	2.20557E+00	-2.47802E+00
8.48357E-01	1.12079E+00	2.20515E+00	-2.46272E+00
1.51835E+00	-1.34743E-01	2.20536E+00	-2.44765E+00
5.54357E-01	-1.30259E+00	2.20533E+00	-2.43309E+00
-1.04963E+00	-1.14406E+00	2.20505E+00	-2.41840E+00
-1.57822E+00	2.33680E-01	2.20494E+00	-2.40358E+00
-4.39253E-01	1.45064E+00	2.20504E+00	-2.38900E+00
1.19243E+00	1.23732E+00	2.20498E+00	-2.37465E+00
1.62337E+00	-2.51768E-01	2.20482E+00	-2.36024E+00
4.22969E-01	-1.54224E+00	2.20476E+00	-2.34578E+00
-1.15934E+00	-1.31019E+00	2.20484E+00	-2.33148E+00
-1.53135E+00	2.44504E-01	2.20484E+00	-2.31734E+00
-3.84008E-01	1.55695E+00	2.20477E+00	-2.30318E+00
1.07338E+00	1.28641E+00	2.20479E+00	-2.28898E+00
1.40977E+00	-2.83734E-01	2.20495E+00	-2.27491E+00
3.87578E-01	-1.52726E+00	2.20509E+00	-2.26103E+00
-9.05991E-01	-1.17973E+00	2.20514E+00	-2.24720E+00
-1.21784E+00	3.35601E-01	2.20520E+00	-2.23333E+00
-3.40278E-01	1.39049E+00	2.20539E+00	-2.21951E+00
7.81174E-01	9.16193E-01	2.20561E+00	-2.20586E+00
1.04260E+00	-4.80812E-01	2.20578E+00	-2.19230E+00
2.52945E-01	-1.25108E+00	2.20595E+00	-2.17879E+00
-7.34095E-01	-6.24135E-01	2.20613E+00	-2.16538E+00
-9.07728E-01	6.06473E-01	2.20622E+00	-2.15207E+00
-1.20619E-01	1.05168E+00	2.20622E+00	-2.13872E+00
7.67899E-01	2.87146E-01	2.20625E+00	-2.12529E+00
7.89006E-01	-7.49744E-01	2.20639E+00	-2.11187E+00
-9.46121E-02	-8.86404E-01	2.20658E+00	-2.09852E+00
-9.11255E-01	-1.95303E-02	2.20681E+00	-2.08521E+00
-7.16925E-01	8.43980E-01	2.20713E+00	-2.07194E+00
3.29299E-01	7.55007E-01	2.20752E+00	-2.05882E+00
1.07069E+00	-1.59678E-01	2.20787E+00	-2.04585E+00
6.17242E-01	-8.98918E-01	2.20814E+00	-2.03292E+00
-6.00599E-01	-6.86687E-01	2.20842E+00	-2.02002E+00
-1.23327E+00	2.44828E-01	2.20868E+00	-2.00718E+00
-5.09659E-01	9.43662E-01	2.20891E+00	-1.99437E+00
8.38272E-01	7.11306E-01	2.20911E+00	-1.98156E+00
1.33150E+00	-2.30467E-01	2.20934E+00	-1.96876E+00
3.89236E-01	-9.73584E-01	2.20960E+00	-1.95598E+00
-9.91805E-01	-7.88998E-01	2.20987E+00	-1.94325E+00
-1.31997E+00	1.78813E-01	2.21014E+00	-1.93054E+00
-2.49476E-01	1.01660E+00	2.21042E+00	-1.91786E+00
1.05902E+00	8.85290E-01	2.21073E+00	-1.90519E+00
1.23193E+00	-1.43239E-01	2.21108E+00	-1.89255E+00
1.53371E-01	-1.08231E+00	2.21147E+00	-1.87998E+00
-9.90957E-01	-9.67224E-01	2.21186E+00	-1.86749E+00
-1.04626E+00	1.31612E-01	2.21221E+00	-1.85508E+00
-6.95854E-02	1.10199E+00	2.21250E+00	-1.84264E+00
8.59512E-01	9.14460E-01	2.21283E+00	-1.83018E+00
8.40993E-01	-2.52723E-01	2.21318E+00	-1.81776E+00
1.51587E-02	-1.15266E+00	2.21354E+00	-1.80533E+00
-7.22589E-01	-8.10926E-01	2.21399E+00	-1.79296E+00
-6.86806E-01	3.83745E-01	2.21443E+00	-1.78069E+00
-1.18297E-02	1.09697E+00	2.21480E+00	-1.76847E+00
5.89878E-01	5.46907E-01	2.21514E+00	-1.75623E+00
5.48754E-01	-6.14348E-01	2.21551E+00	-1.74399E+00
-6.18710E-02	-1.05609E+00	2.21588E+00	-1.73179E+00
-6.33230E-01	-2.92961E-01	2.21618E+00	-1.71958E+00
-5.93520E-01	7.82139E-01	2.21653E+00	-1.70728E+00
4.54581E-02	9.49488E-01	2.21700E+00	-1.69504E+00
6.56718E-01	5.17615E-02	2.21746E+00	-1.68288E+00
5.78537E-01	-8.72872E-01	2.21791E+00	-1.67072E+00
-1.83295E-01	-8.03868E-01	2.21841E+00	-1.65861E+00
-8.67340E-01	1.40812E-01	2.21884E+00	-1.64658E+00
-7.01300E-01	9.12893E-01	2.21921E+00	-1.63447E+00
2.24153E-01	7.29551E-01	2.21969E+00	-1.62232E+00
9.51224E-01	-1.33268E-01	2.22023E+00	-1.61023E+00
6.56811E-01	-7.44555E-01	2.22080E+00	-1.59824E+00
-3.90565E-01	-5.36555E-01	2.22129E+00	-1.58635E+00
-1.05477E+00	1.92893E-01	2.22169E+00	-1.57442E+00
-5.81014E-01	7.00010E-01	2.22209E+00	-1.56244E+00
5.24607E-01	5.54679E-01	2.22251E+00	-1.55044E+00
1.03926E+00	-2.94856E-02	2.22295E+00	-1.53844E+00
4.09275E-01	-4.83888E-01	2.22342E+00	-1.52644E+00
-6.20816E-01	-4.13316E-01	2.22388E+00	-1.51447E+00
-8.75271E-01	9.01757E-02	2.22435E+00	-1.50248E+00
-9.64296E-02	5.44629E-01	2.22484E+00	-1.49050E+00
7.94381E-01	4.97853E-01	2.22533E+00	-1.47854E+00
7.93944E-01	-3.93815E-02	2.22579E+00	-1.46656E+00
-4.27502E-02	-5.43798E-01	2.22630E+00	-1.45452E+00
-7.26062E-01	-4.60488E-01	2.22689E+00	-1.44254E+00
-5.01098E-01	1.82018E-01	2.22746E+00	-1.43061E+00
3.31855E-01	7.06089E-01	2.22801E+00	-1.41868E+00
8.33196E-01	4.73880E-01	2.22856E+00	-1.40676E+00
4.96494E-01	-3.49968E-01	2.22911E+00	-1.39485E+00
-2.60896E-01	-8.80585E-01	2.22966E+00	-1.38295E+00
-6.38036E-01	-4.76033E-01	2.23017E+00	-1.37106E+00
-3.06549E-01	4.72193E-01	2.23066E+00	-1.35912E+00
3.38096E-01	9.03938E-01	2.23117E+00	-1.34717E+00
6.61158E-01	2.85329E-01	2.23167E+00	-1.33520E+00
3.98902E-01	-7.34397E-01	2.23218E+00	-1.32319E+00
-1.73749E-01	-1.02285E+00	2.23272E+00	-1.31115E+00
-5.45163E-01	-2.54679E-01	2.23329E+00	-1.29911E+00
-4.00788E-01	7.06764E-01	2.23387E+00	-1.28706E+00
1.30231E-01	7.93795E-01	2.23446E+00	-1.27500E+00
5.65162E-01	-5.94480E-02	2.23508E+00	-1.26289E+00
4.63940E-01	-8.78405E-01	2.23580E+00	-1.25077E+00
-1.36592E-01	-7.79593E-01	2.23657E+00	-1.23876E+00
-6.74953E-01	6.56925E-02	2.23728E+00	-1.22680E+00
-5.75214E-01	7.02262E-01	2.23797E+00	-1.21481E+00
