jMRUI Data Textfile
 
Filename: Pyr.txt
 
PointsInDataset: 2048
DatasetsInFile: 1
SamplingInterval: 5.00000E-01
ZeroOrderPhase: 0E0
BeginTime: 0E0
TransmitterFrequency: 1.27740E+08
MagneticField: 0E0
TypeOfNucleus: 0E0
NameOfPatient: 
DateOfExperiment: 
Spectrometer: Vespa-Simulation
AdditionalInfo: see 'readme' file for Vespa-Simulation output synopsis
 
  
Signal and FFT 
sig(real)	sig(imag)	fft(real)	fft(imag)
Signal 1 out of 1 in file
3.00000E+00	-7.97973E-17	1.52854E+00	-2.95473E+00
1.75682E+00	-2.40277E+00	1.52842E+00	-2.94347E+00
-8.95634E-01	-2.81416E+00	1.52831E+00	-2.93231E+00
-2.77842E+00	-9.30657E-01	1.52818E+00	-2.92125E+00
-2.37244E+00	1.68030E+00	1.52803E+00	-2.91026E+00
-4.35264E-02	2.88415E+00	1.52788E+00	-2.89934E+00
2.28449E+00	1.72383E+00	1.52772E+00	-2.88846E+00
2.71847E+00	-8.20219E-01	1.52760E+00	-2.87765E+00
9.35023E-01	-2.65762E+00	1.52749E+00	-2.86696E+00
-1.58099E+00	-2.30521E+00	1.52732E+00	-2.85634E+00
-2.77213E+00	-8.36910E-02	1.52713E+00	-2.84574E+00
-1.69041E+00	2.17126E+00	1.52697E+00	-2.83519E+00
7.49101E-01	2.62539E+00	1.52682E+00	-2.82471E+00
2.54142E+00	9.37472E-01	1.52665E+00	-2.81431E+00
2.23912E+00	-1.48650E+00	1.52646E+00	-2.80394E+00
1.20679E-01	-2.66386E+00	1.52631E+00	-2.79362E+00
-2.06289E+00	-1.65662E+00	1.52614E+00	-2.78340E+00
-2.53487E+00	6.82091E-01	1.52591E+00	-2.77323E+00
-9.38151E-01	2.42967E+00	1.52567E+00	-2.76299E+00
1.39659E+00	2.17422E+00	1.52558E+00	-2.75274E+00
2.55924E+00	1.54668E-01	1.52562E+00	-2.74269E+00
1.62258E+00	-1.95918E+00	1.52559E+00	-2.73285E+00
-6.18962E-01	-2.44688E+00	1.52543E+00	-2.72308E+00
-2.32223E+00	-9.37164E-01	1.52517E+00	-2.71332E+00
-2.11051E+00	1.31112E+00	1.52487E+00	-2.70345E+00
-1.85817E-01	2.45816E+00	1.52474E+00	-2.69354E+00
1.85999E+00	1.58834E+00	1.52473E+00	-2.68378E+00
2.36136E+00	-5.59567E-01	1.52469E+00	-2.67423E+00
9.34657E-01	-2.21896E+00	1.52453E+00	-2.66474E+00
-1.22986E+00	-2.04803E+00	1.52433E+00	-2.65524E+00
-2.36053E+00	-2.14315E-01	1.52413E+00	-2.64575E+00
-1.55399E+00	1.76511E+00	1.52395E+00	-2.63628E+00
5.03705E-01	2.27829E+00	1.52378E+00	-2.62684E+00
2.11970E+00	9.30764E-01	1.52366E+00	-2.61742E+00
1.98677E+00	-1.15267E+00	1.52359E+00	-2.60808E+00
2.40279E-01	-2.26627E+00	1.52353E+00	-2.59883E+00
-1.67439E+00	-1.51960E+00	1.52346E+00	-2.58968E+00
-2.19761E+00	4.51189E-01	1.52335E+00	-2.58057E+00
-9.25582E-01	2.02433E+00	1.52322E+00	-2.57150E+00
1.07933E+00	1.92677E+00	1.52310E+00	-2.56248E+00
2.17526E+00	2.63889E-01	1.52294E+00	-2.55349E+00
1.48519E+00	-1.58770E+00	1.52282E+00	-2.54448E+00
-4.01873E-01	-2.11929E+00	1.52276E+00	-2.53554E+00
-1.93274E+00	-9.19186E-01	1.52272E+00	-2.52672E+00
-1.86803E+00	1.00968E+00	1.52262E+00	-2.51797E+00
-2.85234E-01	2.08743E+00	1.52249E+00	-2.50924E+00
1.50483E+00	1.45087E+00	1.52237E+00	-2.50054E+00
2.04328E+00	-3.55597E-01	1.52226E+00	-2.49188E+00
9.11737E-01	-1.84476E+00	1.52212E+00	-2.48326E+00
-9.43581E-01	-1.81054E+00	1.52201E+00	-2.47465E+00
-2.00268E+00	-3.04513E-01	1.52194E+00	-2.46609E+00
-1.41668E+00	1.42566E+00	1.52188E+00	-2.45762E+00
3.12241E-01	1.96953E+00	1.52180E+00	-2.44923E+00
1.76029E+00	9.03299E-01	1.52170E+00	-2.44086E+00
1.75430E+00	-8.80892E-01	1.52159E+00	-2.43258E+00
3.21817E-01	-1.92092E+00	1.52142E+00	-2.42433E+00
-1.35006E+00	-1.38264E+00	1.52118E+00	-2.41607E+00
-1.89800E+00	2.71600E-01	1.52098E+00	-2.40778E+00
-8.93962E-01	1.67920E+00	1.52084E+00	-2.39950E+00
8.21414E-01	1.69934E+00	1.52073E+00	-2.39128E+00
1.84206E+00	3.37266E-01	1.52062E+00	-2.38313E+00
1.34884E+00	-1.27786E+00	1.52050E+00	-2.37500E+00
-2.33567E-01	-1.82864E+00	1.52040E+00	-2.36690E+00
-1.60139E+00	-8.83783E-01	1.52033E+00	-2.35885E+00
-1.64562E+00	7.65056E-01	1.52026E+00	-2.35085E+00
-3.50974E-01	1.76603E+00	1.52020E+00	-2.34289E+00
1.20894E+00	1.31529E+00	1.52017E+00	-2.33499E+00
1.76141E+00	-1.98036E-01	1.52013E+00	-2.32718E+00
8.72870E-01	-1.52673E+00	1.52004E+00	-2.31945E+00
-7.11605E-01	-1.59318E+00	1.51986E+00	-2.31172E+00
-1.69274E+00	-3.63024E-01	1.51966E+00	-2.30392E+00
-1.28203E+00	1.14318E+00	1.51956E+00	-2.29607E+00
1.64800E-01	1.69626E+00	1.51959E+00	-2.28833E+00
1.45509E+00	8.61340E-01	1.51960E+00	-2.28072E+00
1.54198E+00	-6.61026E-01	1.51957E+00	-2.27319E+00
3.73546E-01	-1.62211E+00	1.51951E+00	-2.26571E+00
-1.08041E+00	-1.24912E+00	1.51939E+00	-2.25827E+00
-1.63315E+00	1.33843E-01	1.51924E+00	-2.25084E+00
-8.49172E-01	1.38641E+00	1.51906E+00	-2.24340E+00
6.13143E-01	1.49201E+00	1.51890E+00	-2.23596E+00
1.55404E+00	3.82684E-01	1.51876E+00	-2.22853E+00
1.21655E+00	-1.02058E+00	1.51862E+00	-2.22112E+00
-1.04997E-01	-1.57202E+00	1.51851E+00	-2.21372E+00
-1.32054E+00	-8.36519E-01	1.51844E+00	-2.20636E+00
-1.44330E+00	5.67790E-01	1.51839E+00	-2.19907E+00
-3.90436E-01	1.48848E+00	1.51832E+00	-2.19183E+00
9.63525E-01	1.18436E+00	1.51822E+00	-2.18462E+00
1.51283E+00	-7.81056E-02	1.51815E+00	-2.17737E+00
8.23359E-01	-1.25741E+00	1.51816E+00	-2.17019E+00
-5.24938E-01	-1.39579E+00	1.51814E+00	-2.16313E+00
-1.42533E+00	-3.96938E-01	1.51808E+00	-2.15607E+00
-1.15262E+00	9.09110E-01	1.51805E+00	-2.14904E+00
5.31565E-02	1.45554E+00	1.51802E+00	-2.14210E+00
1.19692E+00	8.09792E-01	1.51792E+00	-2.13520E+00
1.34951E+00	-4.84389E-01	1.51778E+00	-2.12827E+00
4.02315E-01	-1.36452E+00	1.51769E+00	-2.12134E+00
-8.57291E-01	-1.12129E+00	1.51760E+00	-2.11446E+00
-1.40010E+00	3.00014E-02	1.51748E+00	-2.10762E+00
-7.95907E-01	1.13893E+00	1.51736E+00	-2.10075E+00
4.46118E-01	1.30442E+00	1.51731E+00	-2.09389E+00
1.30600E+00	4.06561E-01	1.51729E+00	-2.08713E+00
1.09042E+00	-8.07928E-01	1.51720E+00	-2.08043E+00
-8.50339E-03	-1.34647E+00	1.51707E+00	-2.07369E+00
-1.08341E+00	-7.81682E-01	1.51701E+00	-2.06694E+00
-1.26051E+00	4.09978E-01	1.51700E+00	-2.06026E+00
-4.09832E-01	1.24965E+00	1.51698E+00	-2.05365E+00
7.60886E-01	1.06004E+00	1.51693E+00	-2.04708E+00
1.29459E+00	1.13459E-02	1.51688E+00	-2.04054E+00
7.67202E-01	-1.03023E+00	1.51682E+00	-2.03404E+00
-3.75834E-01	-1.21779E+00	1.51672E+00	-2.02757E+00
-1.19545E+00	-4.12122E-01	1.51659E+00	-2.02108E+00
-1.03014E+00	7.16134E-01	1.51651E+00	-2.01458E+00
-2.96766E-02	1.24444E+00	1.51646E+00	-2.00814E+00
9.79303E-01	7.52540E-01	1.51639E+00	-2.00177E+00
1.17621E+00	-3.43665E-01	1.51626E+00	-1.99539E+00
4.13538E-01	-1.14331E+00	1.51616E+00	-1.98899E+00
-6.73513E-01	-1.00076E+00	1.51609E+00	-1.98262E+00
-1.19595E+00	-4.66085E-02	1.51603E+00	-1.97629E+00
-7.37676E-01	9.30574E-01	1.51595E+00	-1.96996E+00
3.13340E-01	1.13577E+00	1.51593E+00	-1.96365E+00
1.09315E+00	4.14177E-01	1.51596E+00	-1.95742E+00
9.71876E-01	-6.32994E-01	1.51593E+00	-1.95130E+00
6.21472E-02	-1.14909E+00	1.51579E+00	-1.94515E+00
-8.83942E-01	-7.22680E-01	1.51571E+00	-1.93889E+00
-1.09646E+00	2.84740E-01	1.51576E+00	-1.93273E+00
-4.14031E-01	1.04493E+00	1.51577E+00	-1.92674E+00
5.94459E-01	9.43521E-01	1.51561E+00	-1.92074E+00
1.10381E+00	7.64064E-02	1.51548E+00	-1.91461E+00
7.07587E-01	-8.39329E-01	1.51550E+00	-1.90853E+00
-2.57816E-01	-1.05825E+00	1.51548E+00	-1.90263E+00
-9.98563E-01	-4.13221E-01	1.51526E+00	-1.89671E+00
-9.15719E-01	5.57795E-01	1.51511E+00	-1.89057E+00
-8.94908E-02	1.06007E+00	1.51523E+00	-1.88453E+00
7.96636E-01	6.92454E-01	1.51526E+00	-1.87880E+00
1.02112E+00	-2.32548E-01	1.51490E+00	-1.87296E+00
4.11711E-01	-9.54022E-01	1.51487E+00	-1.86667E+00
-5.23005E-01	-8.88427E-01	1.51526E+00	-1.86096E+00
-1.01783E+00	-1.01435E-01	1.51494E+00	-1.85550E+00
-6.77285E-01	7.55812E-01	1.51466E+00	-1.84934E+00
2.08733E-01	9.85060E-01	1.51495E+00	-1.84346E+00
9.11198E-01	4.09671E-01	1.51495E+00	-1.83796E+00
8.61715E-01	-4.89901E-01	1.51471E+00	-1.83226E+00
1.12244E-01	-9.77059E-01	1.51464E+00	-1.82640E+00
-7.16825E-01	-6.62065E-01	1.51473E+00	-1.82073E+00
-9.50051E-01	1.86362E-01	1.51464E+00	-1.81520E+00
-4.07087E-01	8.70057E-01	1.51445E+00	-1.80955E+00
4.58464E-01	8.35553E-01	1.51437E+00	-1.80381E+00
9.37695E-01	1.22103E-01	1.51439E+00	-1.79819E+00
6.46910E-01	-6.79524E-01	1.51431E+00	-1.79267E+00
-1.65420E-01	-9.16059E-01	1.51415E+00	-1.78708E+00
-8.30568E-01	-4.03955E-01	1.51406E+00	-1.78141E+00
-8.09946E-01	4.28621E-01	1.51409E+00	-1.77581E+00
-1.31010E-01	8.99709E-01	1.51409E+00	-1.77033E+00
6.43884E-01	6.31799E-01	1.51399E+00	-1.76485E+00
8.83085E-01	-1.45724E-01	1.51391E+00	-1.75929E+00
4.00420E-01	-7.92624E-01	1.51396E+00	-1.75376E+00
-4.00349E-01	-7.84869E-01	1.51401E+00	-1.74836E+00
-8.63069E-01	-1.38968E-01	1.51401E+00	-1.74301E+00
-6.16717E-01	6.09877E-01	1.51399E+00	-1.73768E+00
1.27267E-01	8.51098E-01	1.51396E+00	-1.73240E+00
7.56197E-01	3.96471E-01	1.51383E+00	-1.72716E+00
7.60374E-01	-3.73487E-01	1.51362E+00	-1.72186E+00
1.46139E-01	-8.27720E-01	1.51344E+00	-1.71644E+00
-5.77366E-01	-6.01760E-01	1.51337E+00	-1.71101E+00
-8.20072E-01	1.10038E-01	1.51335E+00	-1.70564E+00
-3.92101E-01	7.21258E-01	1.51334E+00	-1.70031E+00
3.48017E-01	7.36435E-01	1.51337E+00	-1.69502E+00
7.93631E-01	1.52520E-01	1.51341E+00	-1.68980E+00
5.86908E-01	-5.46327E-01	1.51340E+00	-1.68465E+00
-9.38756E-02	-7.90001E-01	1.51333E+00	-1.67948E+00
-6.87708E-01	-3.87437E-01	1.51331E+00	-1.67428E+00
-7.13031E-01	3.23922E-01	1.51331E+00	-1.66914E+00
-1.58112E-01	7.60776E-01	1.51329E+00	-1.66406E+00
5.16702E-01	5.72179E-01	1.51323E+00	-1.65899E+00
7.60856E-01	-7.87739E-02	1.51315E+00	-1.65390E+00
3.82465E-01	-6.55521E-01	1.51310E+00	-1.64883E+00
-3.01055E-01	-6.90201E-01	1.51304E+00	-1.64379E+00
-7.29099E-01	-1.63058E-01	1.51294E+00	-1.63875E+00
-5.57559E-01	4.88470E-01	1.51284E+00	-1.63370E+00
6.47233E-02	7.32613E-01	1.51276E+00	-1.62864E+00
6.24673E-01	3.77179E-01	1.51272E+00	-1.62359E+00
6.67920E-01	-2.79402E-01	1.51269E+00	-1.61856E+00
1.67353E-01	-6.98574E-01	1.51267E+00	-1.61358E+00
-4.61506E-01	-5.43123E-01	1.51264E+00	-1.60861E+00
-7.05261E-01	5.15810E-02	1.51262E+00	-1.60366E+00
-3.71688E-01	5.95070E-01	1.51261E+00	-1.59875E+00
2.58948E-01	6.46169E-01	1.51256E+00	-1.59386E+00
6.69175E-01	1.70997E-01	1.51253E+00	-1.58894E+00
5.28852E-01	-4.35794E-01	1.51255E+00	-1.58408E+00
-3.93437E-02	-6.78774E-01	1.51252E+00	-1.57929E+00
-5.66689E-01	-3.65979E-01	1.51244E+00	-1.57448E+00
