jMRUI Data Textfile
 
Filename: Tau.txt
 
PointsInDataset: 2048
DatasetsInFile: 1
SamplingInterval: 5.00000E-01
ZeroOrderPhase: 0E0
BeginTime: 0E0
TransmitterFrequency: 1.27740E+08
MagneticField: 0E0
TypeOfNucleus: 0E0
NameOfPatient: 
DateOfExperiment: 
Spectrometer: Vespa-Simulation
AdditionalInfo: see 'readme' file for Vespa-Simulation output synopsis
 
  
Signal and FFT 
sig(real)	sig(imag)	fft(real)	fft(imag)
Signal 1 out of 1 in file
3.47829E+00	-1.78227E-06	1.81397E+00	-6.21462E+00
2.94751E+00	-1.80101E+00	1.81312E+00	-6.17790E+00
1.56275E+00	-3.04757E+00	1.81229E+00	-6.14156E+00
-2.52916E-01	-3.38111E+00	1.81149E+00	-6.10562E+00
-1.95584E+00	-2.72145E+00	1.81070E+00	-6.07007E+00
-3.04750E+00	-1.28545E+00	1.80995E+00	-6.03489E+00
-3.22293E+00	4.84881E-01	1.80921E+00	-6.00011E+00
-2.45709E+00	2.06041E+00	1.80848E+00	-5.96572E+00
-1.00433E+00	2.98565E+00	1.80775E+00	-5.93170E+00
6.86269E-01	3.01244E+00	1.80700E+00	-5.89803E+00
2.11160E+00	2.16689E+00	1.80627E+00	-5.86469E+00
2.86637E+00	7.31396E-01	1.80556E+00	-5.83168E+00
2.75986E+00	-8.49655E-01	1.80487E+00	-5.79901E+00
1.86339E+00	-2.10897E+00	1.80421E+00	-5.76669E+00
4.77183E-01	-2.69623E+00	1.80356E+00	-5.73472E+00
-9.69959E-01	-2.47639E+00	1.80291E+00	-5.70307E+00
-2.05453E+00	-1.55859E+00	1.80226E+00	-5.67175E+00
-2.48349E+00	-2.50442E-01	1.80161E+00	-5.64074E+00
-2.17367E+00	1.04458E+00	1.80096E+00	-5.61002E+00
-1.26348E+00	1.95254E+00	1.80033E+00	-5.57960E+00
-5.78444E-02	2.23771E+00	1.79972E+00	-5.54948E+00
1.07332E+00	1.86315E+00	1.79912E+00	-5.51964E+00
1.80913E+00	9.87550E-01	1.79854E+00	-5.49011E+00
1.96910E+00	-9.62112E-02	1.79798E+00	-5.46087E+00
1.55565E+00	-1.05814E+00	1.79742E+00	-5.43192E+00
7.38548E-01	-1.63185E+00	1.79688E+00	-5.40326E+00
-2.09522E-01	-1.68807E+00	1.79632E+00	-5.37488E+00
-1.00296E+00	-1.26084E+00	1.79575E+00	-5.34676E+00
-1.42918E+00	-5.22231E-01	1.79519E+00	-5.31889E+00
-1.40469E+00	2.82036E-01	1.79465E+00	-5.29126E+00
-9.86943E-01	9.13247E-01	1.79415E+00	-5.26388E+00
-3.42297E-01	1.21006E+00	1.79367E+00	-5.23679E+00
3.15678E-01	1.12824E+00	1.79320E+00	-5.20997E+00
7.95638E-01	7.40463E-01	1.79271E+00	-5.18341E+00
9.83440E-01	2.00377E-01	1.79220E+00	-5.15709E+00
8.66880E-01	-3.13964E-01	1.79170E+00	-5.13099E+00
5.26073E-01	-6.57466E-01	1.79121E+00	-5.10513E+00
9.62541E-02	-7.57818E-01	1.79072E+00	-5.07948E+00
-2.81774E-01	-6.27356E-01	1.79025E+00	-5.05405E+00
-5.06373E-01	-3.46545E-01	1.78982E+00	-5.02885E+00
-5.40898E-01	-2.79752E-02	1.78940E+00	-5.00390E+00
-4.14824E-01	2.24911E-01	1.78899E+00	-4.97919E+00
-2.02880E-01	3.49870E-01	1.78855E+00	-4.95473E+00
7.80891E-03	3.39293E-01	1.78808E+00	-4.93048E+00
1.49705E-01	2.32791E-01	1.78758E+00	-4.90638E+00
1.95016E-01	9.43936E-02	1.78714E+00	-4.88244E+00
1.58328E-01	-1.55195E-02	1.78675E+00	-4.85872E+00
8.31034E-02	-6.26824E-02	1.78639E+00	-4.83524E+00
1.89841E-02	-4.80933E-02	1.78604E+00	-4.81200E+00
-3.45005E-04	-1.91336E-03	1.78565E+00	-4.78898E+00
2.98060E-02	3.39477E-02	1.78522E+00	-4.76615E+00
8.56007E-02	2.66354E-02	1.78479E+00	-4.74348E+00
1.27491E-01	-3.21296E-02	1.78437E+00	-4.72097E+00
1.19471E-01	-1.21879E-01	1.78398E+00	-4.69862E+00
4.66226E-02	-2.01925E-01	1.78363E+00	-4.67647E+00
-7.62355E-02	-2.28841E-01	1.78329E+00	-4.65452E+00
-2.08370E-01	-1.75765E-01	1.78297E+00	-4.63278E+00
-2.97971E-01	-4.57163E-02	1.78263E+00	-4.61125E+00
-3.02413E-01	1.26522E-01	1.78226E+00	-4.58989E+00
-2.06087E-01	2.85010E-01	1.78188E+00	-4.56870E+00
-2.89216E-02	3.72086E-01	1.78147E+00	-4.54764E+00
1.78014E-01	3.49644E-01	1.78109E+00	-4.52671E+00
3.48558E-01	2.14371E-01	1.78076E+00	-4.50593E+00
4.23826E-01	1.22741E-03	1.78048E+00	-4.48534E+00
3.72948E-01	-2.26404E-01	1.78021E+00	-4.46496E+00
2.04963E-01	-3.96860E-01	1.77993E+00	-4.44479E+00
-3.26264E-02	-4.53849E-01	1.77958E+00	-4.42479E+00
-2.68211E-01	-3.75487E-01	1.77919E+00	-4.40492E+00
-4.28847E-01	-1.82347E-01	1.77880E+00	-4.38513E+00
-4.63778E-01	6.83980E-02	1.77845E+00	-4.36545E+00
-3.60929E-01	3.00885E-01	1.77817E+00	-4.34591E+00
-1.50941E-01	4.44463E-01	1.77794E+00	-4.32656E+00
1.02490E-01	4.56003E-01	1.77773E+00	-4.30743E+00
3.22825E-01	3.33204E-01	1.77748E+00	-4.28850E+00
4.44584E-01	1.14812E-01	1.77716E+00	-4.26972E+00
4.33480E-01	-1.32085E-01	1.77678E+00	-4.25105E+00
2.96274E-01	-3.33365E-01	1.77639E+00	-4.23243E+00
7.75405E-02	-4.30851E-01	1.77605E+00	-4.21390E+00
-1.55154E-01	-3.99514E-01	1.77579E+00	-4.19548E+00
-3.32701E-01	-2.53905E-01	1.77560E+00	-4.17724E+00
-4.05488E-01	-4.20798E-02	1.77544E+00	-4.15921E+00
-3.57522E-01	1.70542E-01	1.77524E+00	-4.14137E+00
-2.09518E-01	3.21746E-01	1.77499E+00	-4.12370E+00
-1.06709E-02	3.71107E-01	1.77465E+00	-4.10613E+00
1.77868E-01	3.10834E-01	1.77428E+00	-4.08861E+00
3.02018E-01	1.65996E-01	1.77395E+00	-4.07115E+00
3.30499E-01	-1.51940E-02	1.77369E+00	-4.05377E+00
2.62510E-01	-1.77446E-01	1.77353E+00	-4.03653E+00
1.25619E-01	-2.75435E-01	1.77341E+00	-4.01955E+00
-3.47130E-02	-2.86437E-01	1.77318E+00	-4.00277E+00
-1.70163E-01	-2.15183E-01	1.77287E+00	-3.98603E+00
-2.44132E-01	-9.00108E-02	1.77257E+00	-3.96934E+00
-2.41500E-01	4.77644E-02	1.77233E+00	-3.95273E+00
-1.70981E-01	1.57303E-01	1.77215E+00	-3.93626E+00
-6.01425E-02	2.10283E-01	1.77198E+00	-3.91999E+00
5.47628E-02	1.97930E-01	1.77173E+00	-3.90385E+00
1.40417E-01	1.31436E-01	1.77144E+00	-3.88776E+00
1.75934E-01	3.63747E-02	1.77120E+00	-3.87173E+00
1.57526E-01	-5.65376E-02	1.77101E+00	-3.85582E+00
9.74967E-02	-1.21132E-01	1.77083E+00	-3.84007E+00
1.85639E-02	-1.42869E-01	1.77063E+00	-3.82445E+00
-5.41923E-02	-1.21585E-01	1.77039E+00	-3.80893E+00
-1.01015E-01	-6.95600E-02	1.77014E+00	-3.79347E+00
-1.12517E-01	-6.14286E-03	1.76992E+00	-3.77808E+00
-9.08947E-02	4.89454E-02	1.76976E+00	-3.76280E+00
-4.75425E-02	8.14472E-02	1.76961E+00	-3.74770E+00
1.72991E-03	8.58888E-02	1.76940E+00	-3.73272E+00
4.20192E-02	6.57521E-02	1.76914E+00	-3.71779E+00
6.35327E-02	3.09763E-02	1.76891E+00	-3.70290E+00
6.35647E-02	-6.04592E-03	1.76874E+00	-3.68811E+00
4.60315E-02	-3.45118E-02	1.76861E+00	-3.67345E+00
1.91311E-02	-4.80446E-02	1.76847E+00	-3.65898E+00
-7.82715E-03	-4.57168E-02	1.76822E+00	-3.64461E+00
-2.73185E-02	-3.12700E-02	1.76791E+00	-3.63021E+00
-3.54129E-02	-1.11186E-02	1.76770E+00	-3.61584E+00
-3.21634E-02	8.01768E-03	1.76756E+00	-3.60158E+00
-2.07695E-02	2.10793E-02	1.76746E+00	-3.58745E+00
-6.01156E-03	2.57368E-02	1.76738E+00	-3.57349E+00
7.41422E-03	2.24428E-02	1.76723E+00	-3.55967E+00
1.61610E-02	1.37004E-02	1.76701E+00	-3.54592E+00
1.88299E-02	2.93579E-03	1.76675E+00	-3.53222E+00
1.59032E-02	-6.60940E-03	1.76649E+00	-3.51853E+00
9.20207E-03	-1.26644E-02	1.76628E+00	-3.50487E+00
1.14236E-03	-1.42832E-02	1.76615E+00	-3.49131E+00
-5.97132E-03	-1.17928E-02	1.76606E+00	-3.47788E+00
-1.04610E-02	-6.46461E-03	1.76595E+00	-3.46459E+00
-1.15393E-02	-5.74839E-05	1.76581E+00	-3.45140E+00
-9.34558E-03	5.64737E-03	1.76563E+00	-3.43829E+00
-4.79605E-03	9.24177E-03	1.76544E+00	-3.42523E+00
6.96814E-04	9.96912E-03	1.76525E+00	-3.41223E+00
5.58782E-03	7.85507E-03	1.76507E+00	-3.39929E+00
8.57777E-03	3.66670E-03	1.76490E+00	-3.38642E+00
8.94391E-03	-1.30208E-03	1.76475E+00	-3.37363E+00
6.72962E-03	-5.58927E-03	1.76461E+00	-3.36093E+00
2.72790E-03	-7.98553E-03	1.76447E+00	-3.34831E+00
-1.76079E-03	-7.89786E-03	1.76434E+00	-3.33577E+00
-5.34200E-03	-5.53229E-03	1.76421E+00	-3.32333E+00
-6.98673E-03	-1.81672E-03	1.76405E+00	-3.31096E+00
-6.37692E-03	1.93211E-03	1.76387E+00	-3.29866E+00
-3.99880E-03	4.48651E-03	1.76368E+00	-3.28640E+00
-9.35883E-04	5.16356E-03	1.76351E+00	-3.27417E+00
1.57688E-03	4.07167E-03	1.76339E+00	-3.26201E+00
2.66801E-03	2.03780E-03	1.76331E+00	-3.24996E+00
2.20140E-03	2.26574E-04	1.76320E+00	-3.23802E+00
8.35285E-04	-4.04327E-04	1.76306E+00	-3.22616E+00
-2.81900E-04	4.15872E-04	1.76289E+00	-3.21435E+00
-7.34369E-05	2.07957E-03	1.76272E+00	-3.20257E+00
1.87582E-03	3.31518E-03	1.76257E+00	-3.19083E+00
4.97254E-03	2.75998E-03	1.76245E+00	-3.17917E+00
7.70694E-03	-3.25034E-04	1.76234E+00	-3.16759E+00
8.21025E-03	-5.50752E-03	1.76222E+00	-3.15609E+00
5.10112E-03	-1.10835E-02	1.76210E+00	-3.14464E+00
-1.71418E-03	-1.45518E-02	1.76199E+00	-3.13327E+00
-1.06457E-02	-1.35530E-02	1.76188E+00	-3.12197E+00
-1.86854E-02	-6.95677E-03	1.76175E+00	-3.11074E+00
-2.23376E-02	4.34533E-03	1.76161E+00	-3.09957E+00
-1.89509E-02	1.73269E-02	1.76144E+00	-3.08843E+00
-7.97361E-03	2.75620E-02	1.76130E+00	-3.07731E+00
8.38383E-03	3.06612E-02	1.76122E+00	-3.06625E+00
2.54420E-02	2.39608E-02	1.76117E+00	-3.05530E+00
3.73501E-02	7.84049E-03	1.76109E+00	-3.04447E+00
3.90251E-02	-1.38747E-02	1.76096E+00	-3.03370E+00
2.81281E-02	-3.47342E-02	1.76080E+00	-3.02296E+00
6.32384E-03	-4.75602E-02	1.76063E+00	-3.01222E+00
-2.07260E-02	-4.68747E-02	1.76050E+00	-3.00151E+00
-4.47946E-02	-3.10405E-02	1.76041E+00	-2.99088E+00
-5.76033E-02	-3.31777E-03	1.76034E+00	-2.98033E+00
-5.36495E-02	2.86827E-02	1.76025E+00	-2.96986E+00
-3.23719E-02	5.50819E-02	1.76015E+00	-2.95945E+00
1.14763E-03	6.68340E-02	1.76003E+00	-2.94910E+00
3.73459E-02	5.88242E-02	1.75989E+00	-2.93879E+00
6.49582E-02	3.19113E-02	1.75975E+00	-2.92851E+00
7.45956E-02	-6.87226E-03	1.75962E+00	-2.91826E+00
6.19668E-02	-4.61669E-02	1.75952E+00	-2.90806E+00
2.96136E-02	-7.37167E-02	1.75944E+00	-2.89793E+00
-1.34910E-02	-8.02734E-02	1.75937E+00	-2.88787E+00
-5.44995E-02	-6.27682E-02	1.75928E+00	-2.87789E+00
-8.06445E-02	-2.55925E-02	1.75916E+00	-2.86795E+00
-8.33427E-02	2.05013E-02	1.75903E+00	-2.85804E+00
-6.10906E-02	6.16178E-02	1.75892E+00	-2.84816E+00
-2.01511E-02	8.50636E-02	1.75882E+00	-2.83832E+00
2.72594E-02	8.34202E-02	1.75875E+00	-2.82853E+00
6.67749E-02	5.69860E-02	1.75868E+00	-2.81883E+00
8.63902E-02	1.37619E-02	1.75860E+00	-2.80919E+00
8.02947E-02	-3.30547E-02	1.75850E+00	-2.79960E+00
5.06922E-02	-6.92667E-02	1.75839E+00	-2.79005E+00
7.02747E-03	-8.41854E-02	1.75826E+00	-2.78052E+00
-3.71253E-02	-7.39612E-02	1.75816E+00	-2.77102E+00
-6.84637E-02	-4.26515E-02	1.75808E+00	-2.76157E+00
-7.81902E-02	-6.76376E-04	1.75801E+00	-2.75219E+00
-6.46301E-02	3.87275E-02	1.75794E+00	-2.74287E+00
