 Vespa-Simulation Mixed Metabolite Output
 This file was generated by Vespa-Simulation. You can learn about and download Vespa here:
https://github.com/vespa-mrs/vespa/tree/main/vespa

 
 Output Path/Filename = /home/stud/casperc/bhome/Project1(DeepFit)/DeepFit-data-generation/DeepFitData_TE_20_lw18_2048p
 Output Loop Values = (1,1,1)  ( Loop 1 = 10, Loop 2 = 10, Loop3 Inactive )
 Output Comment
 ---------------------------------------------------------------------------
 
 
 Experiment Information
 ---------------------------------------------------------------------------
 --- Experiment 18b0168e-f5f0-4bd4-8d52-da93aba06c60 ---
 Name: SyntheticDataSetDeepFitTE20
 Public: False
 Created: 2024-10-08T09:55:07
 Comment (abbr.): 
 PI: Casper Cappelen
 b0: 127.740000
 Peak Search PPM low/high: -15.000000 / 15.000000
 Blend tol. PPM/phase: 0.001500 / 50.000000
 Pulse seq.: 43be13ae-de9a-40a1-9a2d-c872d8bjs100 (PRESS Ideal)
 0 User static parameters: 
 22 Metabolites: 2-hydroxyglutarate, alanine, choline-trimethyl, creatine, ethanolamine, gaba, glucose-beta, glutamate, glutamine, glutathione-glutamate, glutathione-glycine-cysteine, glycine, GPC-pcholine2, lactate, myo-inositol, n-acetylaspartate, NAAG-truncated, phosphocreatine, phosphorylcholine-trimethyl, phosphorylethanolamine, pyruvate, taurine
 22 Simulations: (not shown)
 
 Metabolite Formatting Information
 ---------------------------------------------------------------------------
 Name=2-hydroxyglutarate Abbr=2HG Scale=1.0 Shift=0.0 PPM Start=-3.1207465171441986 PPM End=12.528391440425866
 Name=alanine Abbr=Ala Scale=1.0 Shift=0.0 PPM Start=-3.1207465171441986 PPM End=12.528391440425866
 Name=choline-trimethyl Abbr=Cho Scale=1.0 Shift=0.0 PPM Start=-3.1207465171441986 PPM End=12.528391440425866
 Name=creatine Abbr=Cr Scale=1.0 Shift=0.0 PPM Start=-3.1207465171441986 PPM End=12.528391440425866
 Name=ethanolamine Abbr=ETA Scale=1.0 Shift=0.0 PPM Start=-3.1207465171441986 PPM End=12.528391440425866
 Name=gaba Abbr=GABA Scale=1.0 Shift=0.0 PPM Start=-3.1207465171441986 PPM End=12.528391440425866
 Name=glucose-beta Abbr=Glc Scale=1.0 Shift=0.0 PPM Start=-3.1207465171441986 PPM End=12.528391440425866
 Name=glutamate Abbr=Glu Scale=1.0 Shift=0.0 PPM Start=-3.1207465171441986 PPM End=12.528391440425866
 Name=glutamine Abbr=Gln Scale=1.0 Shift=0.0 PPM Start=-3.1207465171441986 PPM End=12.528391440425866
 Name=glycine Abbr=Gly Scale=1.0 Shift=0.0 PPM Start=-3.1207465171441986 PPM End=12.528391440425866
 Name=GPC-pcholine2 Abbr=GPC Scale=1.0 Shift=0.0 PPM Start=-3.1207465171441986 PPM End=12.528391440425866
 Name=lactate Abbr=Lac Scale=1.0 Shift=0.0 PPM Start=-3.1207465171441986 PPM End=12.528391440425866
 Name=myo-inositol Abbr=mI Scale=1.0 Shift=0.0 PPM Start=-3.1207465171441986 PPM End=12.528391440425866
 Name=n-acetylaspartate Abbr=NAA Scale=1.0 Shift=0.0 PPM Start=-3.1207465171441986 PPM End=12.528391440425866
 Name=NAAG-truncated Abbr=NAAG Scale=1.0 Shift=0.0 PPM Start=-3.1207465171441986 PPM End=12.528391440425866
 Name=phosphocreatine Abbr=PCr Scale=1.0 Shift=0.0 PPM Start=-3.1207465171441986 PPM End=12.528391440425866
 Name=phosphorylcholine-trimethyl Abbr=PCho Scale=1.0 Shift=0.0 PPM Start=-3.1207465171441986 PPM End=12.528391440425866
 Name=phosphorylethanolamine Abbr=PE Scale=1.0 Shift=0.0 PPM Start=-3.1207465171441986 PPM End=12.528391440425866
 Name=pyruvate Abbr=Pyr Scale=1.0 Shift=0.0 PPM Start=-3.1207465171441986 PPM End=12.528391440425866
 Name=taurine Abbr=Tau Scale=1.0 Shift=0.0 PPM Start=-3.1207465171441986 PPM End=12.528391440425866
 Name=glutathione-glutamate+glutathione-glycine-cysteine Abbr=GSH Scale=1.0 Shift=0.0 PPM Start=-3.1207565171441987 PPM End=12.528
   Mixture of [metab*scale] = glutathione-glutamate*1.000000 + glutathione-glycine-cysteine*1.000000
 
 ===========================================================================
 This LCModel format RAW file was created using the 
 Vespa-Simulation spectral simulation program using 
 the following settings and parameters 
 
 Sweep Width = 2000.0 Hz 
 Vector Size = 2048 points 
 Apodization = 18.0 Hz Lorentzian broadening
 B0 Field    = 127.74 MHz 
 Ref Singlet = False
  
 $NMID ID='2HG'
 FMTDAT='(2E16.6)'
 VOLUME=1.0
 TRAMP=1.0
 $END
    4.583992E+00    2.722371E-02
    2.593540E+00    3.372529E+00
   -1.077222E+00    3.429793E+00
   -2.809129E+00    5.339307E-01
   -1.197896E+00   -2.117009E+00
    1.727293E+00   -1.872870E+00
    2.824807E+00    7.870839E-01
    1.056511E+00    3.030385E+00
   -1.709731E+00    2.701930E+00
   -2.851262E+00    3.476348E-01
   -1.615808E+00   -1.654323E+00
    4.255872E-01   -1.625004E+00
    1.234621E+00   -6.659955E-02
    3.105441E-01    1.186539E+00
   -1.120995E+00    9.390281E-01
   -1.590986E+00   -3.701737E-01
   -7.998206E-01   -1.411468E+00
    3.683682E-01   -1.377084E+00
    9.270655E-01   -5.778120E-01
    6.815532E-01    1.348423E-01
    1.541622E-01    2.675867E-01
   -1.038731E-01   -2.032843E-02
    1.956597E-02   -3.001231E-01
    2.982770E-01   -3.343550E-01
    5.080773E-01   -1.590097E-01
    5.722304E-01    1.079833E-01
    4.778090E-01    3.851419E-01
    2.177455E-01    5.783006E-01
   -1.310488E-01    5.590668E-01
   -3.645907E-01    2.941232E-01
   -3.038024E-01   -3.436396E-02
   -1.329653E-02   -1.391539E-01
    1.988599E-01    8.363532E-02
    6.825062E-02    4.044541E-01
   -3.347263E-01    4.584817E-01
   -6.420575E-01    1.175719E-01
   -5.463608E-01   -3.570720E-01
   -1.161279E-01   -5.601047E-01
    2.648360E-01   -3.417463E-01
    2.755438E-01    4.851033E-02
   -3.374646E-02    2.172511E-01
   -3.092406E-01    1.412273E-02
   -2.531818E-01   -3.382096E-01
    9.393494E-02   -4.826859E-01
    4.160258E-01   -2.772794E-01
    4.400380E-01    8.883699E-02
    1.841118E-01    3.005688E-01
   -9.029157E-02    2.174063E-01
   -1.441065E-01   -2.114193E-02
    2.729210E-02   -1.582122E-01
    2.222225E-01   -6.677536E-02
    2.423401E-01    1.541238E-01
    6.938128E-02    2.986518E-01
   -1.433501E-01    2.504922E-01
   -2.285368E-01    7.116102E-02
   -1.499412E-01   -7.955431E-02
   -1.162653E-02   -9.454658E-02
    5.362341E-02   -2.350224E-04
    9.373750E-04    8.920001E-02
   -1.041680E-01    8.331258E-02
   -1.594463E-01   -1.237766E-02
   -1.173466E-01   -1.163329E-01
   -1.570890E-02   -1.501028E-01
    6.639655E-02   -1.013864E-01
    7.846499E-02   -2.288218E-02
    3.341397E-02    2.057564E-02
   -1.399304E-02    5.266608E-03
   -1.803604E-02   -3.995936E-02
    2.288279E-02   -6.567432E-02
    7.173298E-02   -4.488524E-02
    8.797640E-02    8.316484E-03
    6.032283E-02    5.513965E-02
    1.205969E-02    6.560451E-02
   -2.137848E-02    4.075265E-02
   -2.146189E-02    7.763588E-03
    1.246270E-03   -4.834153E-03
    1.940862E-02    9.954585E-03
    1.325616E-02    3.458939E-02
   -1.382907E-02    4.422009E-02
   -4.028074E-02    2.819664E-02
   -4.589285E-02   -2.169768E-03
   -2.847899E-02   -2.478491E-02
   -4.038601E-03   -2.589745E-02
    8.231771E-03   -1.048949E-02
    2.112946E-03    4.015490E-03
   -1.204600E-02    3.834984E-03
   -1.813766E-02   -9.879541E-03
   -8.881320E-03   -2.369463E-02
    8.693230E-03   -2.483543E-02
    2.066884E-02   -1.225066E-02
    1.888337E-02    3.559636E-03
    7.313374E-03    1.068709E-02
   -2.714658E-03    6.104125E-03
   -3.151397E-03   -2.893731E-03
    4.237752E-03   -6.418000E-03
    1.075856E-02   -1.085355E-03
    9.497206E-03    7.759510E-03
    1.404923E-03    1.192815E-02
   -6.446716E-03    8.160046E-03
   -7.964676E-03    5.005196E-04
   -3.371586E-03   -4.256216E-03
    1.898755E-03   -3.036430E-03
    2.915253E-03    1.337536E-03
   -3.328622E-04    3.709291E-03
   -3.746183E-03    1.776159E-03
   -3.646575E-03   -2.181810E-03
   -2.260738E-04   -4.152039E-03
    3.176646E-03   -2.447407E-03
    3.657248E-03    1.037189E-03
    1.369354E-03    3.121849E-03
   -1.122819E-03    2.472464E-03
   -1.626905E-03    4.994955E-04
   -2.951273E-04   -4.458218E-04
    9.139119E-04    5.432466E-04
    3.775078E-04    2.266328E-03
   -1.671464E-03    2.814029E-03
   -3.542224E-03    1.437567E-03
   -3.766504E-03   -8.710864E-04
   -2.381423E-03   -2.432707E-03
   -7.271121E-04   -2.426326E-03
   -1.108077E-04   -1.503047E-03
   -6.373380E-04   -1.024062E-03
   -1.230419E-03   -1.725489E-03
   -7.349568E-04   -3.051227E-03
    9.644997E-04   -3.719504E-03
    2.837893E-03   -2.944941E-03
    3.674456E-03   -1.157463E-03
    3.179068E-03    4.364330E-04
    2.160160E-03    9.925897E-04
    1.670554E-03    7.535752E-04
    1.980637E-03    6.831086E-04
    2.393626E-03    1.427902E-03
    2.032285E-03    2.672230E-03
    7.510999E-04    3.501147E-03
   -7.495995E-04    3.338263E-03
   -1.661980E-03    2.469632E-03
   -1.842978E-03    1.658013E-03
   -1.830036E-03    1.323276E-03
   -2.155368E-03    1.174366E-03
   -2.739013E-03    6.384296E-04
   -3.000786E-03   -4.319840E-04
   -2.528598E-03   -1.549645E-03
   -1.561813E-03   -2.090489E-03
   -7.713580E-04   -1.953262E-03
   -5.658421E-04   -1.677613E-03
   -6.435311E-04   -1.879492E-03
   -2.753177E-04   -2.558720E-03
    9.149383E-04   -2.991237E-03
    2.423658E-03   -2.388778E-03
    3.181983E-03   -7.605560E-04
    2.542672E-03    8.813870E-04
    1.052604E-03    1.328337E-03
    1.469629E-04    3.797468E-04
    8.276506E-04   -7.387899E-04
    2.492691E-03   -3.908432E-04
    3.231713E-03    1.764826E-03
    1.629257E-03    4.082107E-03
   -1.551908E-03    4.263537E-03
   -3.705820E-03    1.717484E-03
   -2.814429E-03   -1.456078E-03
    2.881578E-04   -2.232869E-03
    2.358924E-03    2.452033E-04
    8.872641E-04    3.434245E-03
   -3.091289E-03    3.673918E-03
   -5.650625E-03    8.846920E-07
   -3.845206E-03   -4.481741E-03
    1.037737E-03   -5.466089E-03
    4.441403E-03   -1.878089E-03
    3.065467E-03    2.750855E-03
   -1.614149E-03    3.692584E-03
   -4.658957E-03   -1.099544E-04
   -2.675179E-03   -4.806906E-03
    2.621810E-03   -5.490237E-03
    6.069867E-03   -1.232232E-03
