 Vespa-Simulation Mixed Metabolite Output
 This file was generated by Vespa-Simulation. You can learn about and download Vespa here:
https://github.com/vespa-mrs/vespa/tree/main/vespa

 
 Output Path/Filename = /home/stud/casperc/bhome/Project1(DeepFit)/DeepFit-data-generation/DeepFitData_TE_20_lw18_2048p
 Output Loop Values = (1,1,1)  ( Loop 1 = 10, Loop 2 = 10, Loop3 Inactive )
 Output Comment
 ---------------------------------------------------------------------------
 
 
 Experiment Information
 ---------------------------------------------------------------------------
 --- Experiment 18b0168e-f5f0-4bd4-8d52-da93aba06c60 ---
 Name: SyntheticDataSetDeepFitTE20
 Public: False
 Created: 2024-10-08T09:55:07
 Comment (abbr.): 
 PI: Casper Cappelen
 b0: 127.740000
 Peak Search PPM low/high: -15.000000 / 15.000000
 Blend tol. PPM/phase: 0.001500 / 50.000000
 Pulse seq.: 43be13ae-de9a-40a1-9a2d-c872d8bjs100 (PRESS Ideal)
 0 User static parameters: 
 22 Metabolites: 2-hydroxyglutarate, alanine, choline-trimethyl, creatine, ethanolamine, gaba, glucose-beta, glutamate, glutamine, glutathione-glutamate, glutathione-glycine-cysteine, glycine, GPC-pcholine2, lactate, myo-inositol, n-acetylaspartate, NAAG-truncated, phosphocreatine, phosphorylcholine-trimethyl, phosphorylethanolamine, pyruvate, taurine
 22 Simulations: (not shown)
 
 Metabolite Formatting Information
 ---------------------------------------------------------------------------
 Name=2-hydroxyglutarate Abbr=2HG Scale=1.0 Shift=0.0 PPM Start=-3.1207465171441986 PPM End=12.528391440425866
 Name=alanine Abbr=Ala Scale=1.0 Shift=0.0 PPM Start=-3.1207465171441986 PPM End=12.528391440425866
 Name=choline-trimethyl Abbr=Cho Scale=1.0 Shift=0.0 PPM Start=-3.1207465171441986 PPM End=12.528391440425866
 Name=creatine Abbr=Cr Scale=1.0 Shift=0.0 PPM Start=-3.1207465171441986 PPM End=12.528391440425866
 Name=ethanolamine Abbr=ETA Scale=1.0 Shift=0.0 PPM Start=-3.1207465171441986 PPM End=12.528391440425866
 Name=gaba Abbr=GABA Scale=1.0 Shift=0.0 PPM Start=-3.1207465171441986 PPM End=12.528391440425866
 Name=glucose-beta Abbr=Glc Scale=1.0 Shift=0.0 PPM Start=-3.1207465171441986 PPM End=12.528391440425866
 Name=glutamate Abbr=Glu Scale=1.0 Shift=0.0 PPM Start=-3.1207465171441986 PPM End=12.528391440425866
 Name=glutamine Abbr=Gln Scale=1.0 Shift=0.0 PPM Start=-3.1207465171441986 PPM End=12.528391440425866
 Name=glycine Abbr=Gly Scale=1.0 Shift=0.0 PPM Start=-3.1207465171441986 PPM End=12.528391440425866
 Name=GPC-pcholine2 Abbr=GPC Scale=1.0 Shift=0.0 PPM Start=-3.1207465171441986 PPM End=12.528391440425866
 Name=lactate Abbr=Lac Scale=1.0 Shift=0.0 PPM Start=-3.1207465171441986 PPM End=12.528391440425866
 Name=myo-inositol Abbr=mI Scale=1.0 Shift=0.0 PPM Start=-3.1207465171441986 PPM End=12.528391440425866
 Name=n-acetylaspartate Abbr=NAA Scale=1.0 Shift=0.0 PPM Start=-3.1207465171441986 PPM End=12.528391440425866
 Name=NAAG-truncated Abbr=NAAG Scale=1.0 Shift=0.0 PPM Start=-3.1207465171441986 PPM End=12.528391440425866
 Name=phosphocreatine Abbr=PCr Scale=1.0 Shift=0.0 PPM Start=-3.1207465171441986 PPM End=12.528391440425866
 Name=phosphorylcholine-trimethyl Abbr=PCho Scale=1.0 Shift=0.0 PPM Start=-3.1207465171441986 PPM End=12.528391440425866
 Name=phosphorylethanolamine Abbr=PE Scale=1.0 Shift=0.0 PPM Start=-3.1207465171441986 PPM End=12.528391440425866
 Name=pyruvate Abbr=Pyr Scale=1.0 Shift=0.0 PPM Start=-3.1207465171441986 PPM End=12.528391440425866
 Name=taurine Abbr=Tau Scale=1.0 Shift=0.0 PPM Start=-3.1207465171441986 PPM End=12.528391440425866
 Name=glutathione-glutamate+glutathione-glycine-cysteine Abbr=GSH Scale=1.0 Shift=0.0 PPM Start=-3.1207565171441987 PPM End=12.528
   Mixture of [metab*scale] = glutathione-glutamate*1.000000 + glutathione-glycine-cysteine*1.000000
 
 ===========================================================================
 This LCModel format RAW file was created using the 
 Vespa-Simulation spectral simulation program using 
 the following settings and parameters 
 
 Sweep Width = 2000.0 Hz 
 Vector Size = 2048 points 
 Apodization = 18.0 Hz Lorentzian broadening
 B0 Field    = 127.74 MHz 
 Ref Singlet = False
  
 This data has been FFTd to be in the FREQUENCY domain
 
 $NMID ID='2HG'
 FMTDAT='(2E16.6)'
 VOLUME=1.0
 TRAMP=1.0
 $END
    2.737475E+00    6.412345E+00
    2.746712E+00    6.459707E+00
    2.756261E+00    6.507919E+00
    2.766137E+00    6.557008E+00
    2.776354E+00    6.607001E+00
    2.786928E+00    6.657926E+00
    2.797877E+00    6.709815E+00
    2.809218E+00    6.762698E+00
    2.820971E+00    6.816608E+00
    2.833155E+00    6.871579E+00
    2.845793E+00    6.927648E+00
    2.858906E+00    6.984851E+00
    2.872520E+00    7.043228E+00
    2.886661E+00    7.102820E+00
    2.901356E+00    7.163670E+00
    2.916634E+00    7.225822E+00
    2.932526E+00    7.289324E+00
    2.949067E+00    7.354225E+00
    2.966290E+00    7.420577E+00
    2.984236E+00    7.488435E+00
    3.002943E+00    7.557856E+00
    3.022455E+00    7.628900E+00
    3.042819E+00    7.701631E+00
    3.064085E+00    7.776116E+00
    3.086306E+00    7.852424E+00
    3.109539E+00    7.930631E+00
    3.133846E+00    8.010816E+00
    3.159292E+00    8.093062E+00
    3.185948E+00    8.177458E+00
    3.213893E+00    8.264098E+00
    3.243209E+00    8.353084E+00
    3.273986E+00    8.444523E+00
    3.306325E+00    8.538530E+00
    3.340334E+00    8.635229E+00
    3.376133E+00    8.734754E+00
    3.413857E+00    8.837246E+00
    3.453658E+00    8.942860E+00
    3.495711E+00    9.051756E+00
    3.540212E+00    9.164098E+00
    3.587383E+00    9.280055E+00
    3.637472E+00    9.399788E+00
    3.690744E+00    9.523456E+00
    3.747484E+00    9.651209E+00
    3.807985E+00    9.783197E+00
    3.872553E+00    9.919574E+00
    3.941505E+00    1.006051E+01
    4.015179E+00    1.020619E+01
    4.093945E+00    1.035684E+01
    4.178217E+00    1.051271E+01
    4.268463E+00    1.067405E+01
    4.365221E+00    1.084116E+01
    4.469096E+00    1.101434E+01
    4.580780E+00    1.119390E+01
    4.701052E+00    1.138017E+01
    4.830791E+00    1.157347E+01
    4.970994E+00    1.177414E+01
    5.122792E+00    1.198250E+01
    5.287474E+00    1.219889E+01
    5.466520E+00    1.242361E+01
    5.661638E+00    1.265695E+01
    5.874805E+00    1.289911E+01
    6.108313E+00    1.315020E+01
    6.364810E+00    1.341012E+01
    6.647323E+00    1.367851E+01
    6.959279E+00    1.395467E+01
    7.304499E+00    1.423741E+01
    7.687205E+00    1.452496E+01
    8.112020E+00    1.481487E+01
    8.583964E+00    1.510379E+01
    9.108431E+00    1.538726E+01
    9.691089E+00    1.565936E+01
    1.033767E+01    1.591239E+01
    1.105360E+01    1.613637E+01
    1.184332E+01    1.631862E+01
    1.270935E+01    1.644349E+01
    1.365098E+01    1.649232E+01
    1.466255E+01    1.644399E+01
    1.573176E+01    1.627636E+01
    1.683829E+01    1.596900E+01
    1.795384E+01    1.550694E+01
    1.904450E+01    1.488479E+01
    2.007581E+01    1.410938E+01
    2.101934E+01    1.319877E+01
    2.185761E+01    1.217676E+01
    2.258394E+01    1.106524E+01
    2.319694E+01    9.878993E+00
    2.369338E+01    8.626355E+00
    2.406453E+01    7.314770E+00
    2.429820E+01    5.956384E+00
    2.438372E+01    4.569754E+00
    2.431607E+01    3.177327E+00
    2.409647E+01    1.801203E+00
    2.372982E+01    4.602292E-01
    2.322095E+01   -8.295758E-01
    2.257305E+01   -2.051462E+00
    2.179016E+01   -3.184203E+00
    2.088262E+01   -4.201938E+00
    1.987124E+01   -5.078770E+00
    1.878704E+01   -5.795475E+00
    1.766652E+01   -6.344303E+00
    1.654551E+01   -6.729819E+00
    1.545429E+01   -6.966370E+00
    1.441515E+01   -7.074123E+00
    1.344234E+01   -7.075327E+00
    1.254319E+01   -6.991607E+00
    1.171981E+01   -6.842384E+00
    1.097071E+01   -6.644198E+00
    1.029222E+01   -6.410618E+00
    9.679426E+00   -6.152495E+00
    9.126956E+00   -5.878361E+00
    8.629354E+00   -5.594865E+00
    8.181336E+00   -5.307165E+00
    7.777891E+00   -5.019253E+00
    7.414304E+00   -4.734177E+00
    7.086164E+00   -4.454199E+00
    6.789392E+00   -4.180902E+00
    6.520271E+00   -3.915284E+00
    6.275485E+00   -3.657873E+00
    6.052139E+00   -3.408836E+00
    5.847744E+00   -3.168100E+00
    5.660177E+00   -2.935447E+00
    5.487632E+00   -2.710577E+00
    5.328569E+00   -2.493157E+00
    5.181660E+00   -2.282847E+00
    5.045757E+00   -2.079312E+00
    4.919857E+00   -1.882233E+00
    4.803076E+00   -1.691307E+00
    4.694628E+00   -1.506252E+00
    4.593806E+00   -1.326803E+00
    4.499967E+00   -1.152706E+00
    4.412529E+00   -9.837128E-01
    4.330963E+00   -8.195779E-01
    4.254798E+00   -6.600614E-01
    4.183613E+00   -5.049331E-01
    4.117032E+00   -3.539767E-01
    4.054718E+00   -2.069916E-01
    3.996362E+00   -6.379332E-02
    3.941680E+00    7.578715E-02
    3.890406E+00    2.119073E-01
    3.842285E+00    3.447193E-01
    3.797079E+00    4.743755E-01
    3.754569E+00    6.010302E-01
    3.714557E+00    7.248357E-01
    3.676870E+00    8.459367E-01
    3.641349E+00    9.644665E-01
    3.607844E+00    1.080549E+00
    3.576213E+00    1.194302E+00
    3.546320E+00    1.305843E+00
    3.518039E+00    1.415291E+00
    3.491256E+00    1.522764E+00
    3.465870E+00    1.628377E+00
    3.441792E+00    1.732241E+00
    3.418944E+00    1.834462E+00
    3.397256E+00    1.935140E+00
    3.376665E+00    2.034367E+00
    3.357115E+00    2.132229E+00
    3.338554E+00    2.228807E+00
    3.320934E+00    2.324178E+00
    3.304210E+00    2.418413E+00
    3.288340E+00    2.511581E+00
    3.273284E+00    2.603746E+00
    3.259008E+00    2.694970E+00
    3.245475E+00    2.785312E+00
    3.232654E+00    2.874829E+00
    3.220515E+00    2.963574E+00
    3.209030E+00    3.051601E+00
    3.198172E+00    3.138958E+00
    3.187915E+00    3.225696E+00
    3.178238E+00    3.311860E+00
    3.169118E+00    3.397495E+00
    3.160534E+00    3.482647E+00
    3.152468E+00    3.567357E+00
