 Vespa-Simulation Mixed Metabolite Output
 This file was generated by Vespa-Simulation. You can learn about and download Vespa here:
https://github.com/vespa-mrs/vespa/tree/main/vespa

 
 Output Path/Filename = /home/stud/casperc/bhome/Project1(DeepFit)/DeepFit-data-generation/DeepFitData_TE_20_lw18_2048p
 Output Loop Values = (1,1,1)  ( Loop 1 = 10, Loop 2 = 10, Loop3 Inactive )
 Output Comment
 ---------------------------------------------------------------------------
 
 
 Experiment Information
 ---------------------------------------------------------------------------
 --- Experiment 18b0168e-f5f0-4bd4-8d52-da93aba06c60 ---
 Name: SyntheticDataSetDeepFitTE20
 Public: False
 Created: 2024-10-08T09:55:07
 Comment (abbr.): 
 PI: Casper Cappelen
 b0: 127.740000
 Peak Search PPM low/high: -15.000000 / 15.000000
 Blend tol. PPM/phase: 0.001500 / 50.000000
 Pulse seq.: 43be13ae-de9a-40a1-9a2d-c872d8bjs100 (PRESS Ideal)
 0 User static parameters: 
 22 Metabolites: 2-hydroxyglutarate, alanine, choline-trimethyl, creatine, ethanolamine, gaba, glucose-beta, glutamate, glutamine, glutathione-glutamate, glutathione-glycine-cysteine, glycine, GPC-pcholine2, lactate, myo-inositol, n-acetylaspartate, NAAG-truncated, phosphocreatine, phosphorylcholine-trimethyl, phosphorylethanolamine, pyruvate, taurine
 22 Simulations: (not shown)
 
 Metabolite Formatting Information
 ---------------------------------------------------------------------------
 Name=2-hydroxyglutarate Abbr=2HG Scale=1.0 Shift=0.0 PPM Start=-3.1207465171441986 PPM End=12.528391440425866
 Name=alanine Abbr=Ala Scale=1.0 Shift=0.0 PPM Start=-3.1207465171441986 PPM End=12.528391440425866
 Name=choline-trimethyl Abbr=Cho Scale=1.0 Shift=0.0 PPM Start=-3.1207465171441986 PPM End=12.528391440425866
 Name=creatine Abbr=Cr Scale=1.0 Shift=0.0 PPM Start=-3.1207465171441986 PPM End=12.528391440425866
 Name=ethanolamine Abbr=ETA Scale=1.0 Shift=0.0 PPM Start=-3.1207465171441986 PPM End=12.528391440425866
 Name=gaba Abbr=GABA Scale=1.0 Shift=0.0 PPM Start=-3.1207465171441986 PPM End=12.528391440425866
 Name=glucose-beta Abbr=Glc Scale=1.0 Shift=0.0 PPM Start=-3.1207465171441986 PPM End=12.528391440425866
 Name=glutamate Abbr=Glu Scale=1.0 Shift=0.0 PPM Start=-3.1207465171441986 PPM End=12.528391440425866
 Name=glutamine Abbr=Gln Scale=1.0 Shift=0.0 PPM Start=-3.1207465171441986 PPM End=12.528391440425866
 Name=glycine Abbr=Gly Scale=1.0 Shift=0.0 PPM Start=-3.1207465171441986 PPM End=12.528391440425866
 Name=GPC-pcholine2 Abbr=GPC Scale=1.0 Shift=0.0 PPM Start=-3.1207465171441986 PPM End=12.528391440425866
 Name=lactate Abbr=Lac Scale=1.0 Shift=0.0 PPM Start=-3.1207465171441986 PPM End=12.528391440425866
 Name=myo-inositol Abbr=mI Scale=1.0 Shift=0.0 PPM Start=-3.1207465171441986 PPM End=12.528391440425866
 Name=n-acetylaspartate Abbr=NAA Scale=1.0 Shift=0.0 PPM Start=-3.1207465171441986 PPM End=12.528391440425866
 Name=NAAG-truncated Abbr=NAAG Scale=1.0 Shift=0.0 PPM Start=-3.1207465171441986 PPM End=12.528391440425866
 Name=phosphocreatine Abbr=PCr Scale=1.0 Shift=0.0 PPM Start=-3.1207465171441986 PPM End=12.528391440425866
 Name=phosphorylcholine-trimethyl Abbr=PCho Scale=1.0 Shift=0.0 PPM Start=-3.1207465171441986 PPM End=12.528391440425866
 Name=phosphorylethanolamine Abbr=PE Scale=1.0 Shift=0.0 PPM Start=-3.1207465171441986 PPM End=12.528391440425866
 Name=pyruvate Abbr=Pyr Scale=1.0 Shift=0.0 PPM Start=-3.1207465171441986 PPM End=12.528391440425866
 Name=taurine Abbr=Tau Scale=1.0 Shift=0.0 PPM Start=-3.1207465171441986 PPM End=12.528391440425866
 Name=glutathione-glutamate+glutathione-glycine-cysteine Abbr=GSH Scale=1.0 Shift=0.0 PPM Start=-3.1207565171441987 PPM End=12.528
   Mixture of [metab*scale] = glutathione-glutamate*1.000000 + glutathione-glycine-cysteine*1.000000
 
 ===========================================================================
 This LCModel format RAW file was created using the 
 Vespa-Simulation spectral simulation program using 
 the following settings and parameters 
 
 Sweep Width = 2000.0 Hz 
 Vector Size = 2048 points 
 Apodization = 18.0 Hz Lorentzian broadening
 B0 Field    = 127.74 MHz 
 Ref Singlet = False
  
 $NMID ID='Ala'
 FMTDAT='(2E16.6)'
 VOLUME=1.0
 TRAMP=1.0
 $END
    3.438944E+00   -1.229099E-02
    1.385569E+00    2.784120E+00
   -1.661720E+00    1.812950E+00
   -1.544794E+00   -1.057409E+00
    1.087809E+00   -1.499761E+00
    2.056253E+00    9.860512E-01
   -1.716594E-01    2.625296E+00
   -2.457995E+00    1.002365E+00
   -1.713098E+00   -1.590383E+00
    7.575438E-01   -1.670799E+00
    1.391045E+00    4.722870E-01
   -4.652644E-01    1.472555E+00
   -1.853848E+00   -1.322619E-01
   -6.542723E-01   -1.956438E+00
    1.455106E+00   -1.395754E+00
    1.601595E+00    6.753172E-01
   -1.673807E-01    1.361408E+00
   -1.166172E+00   -5.260562E-02
   -4.373227E-02   -1.269908E+00
    1.413016E+00   -4.523470E-01
    1.032502E+00    1.205865E+00
   -6.379175E-01    1.366822E+00
   -1.279482E+00   -7.917678E-02
   -1.776263E-01   -1.016066E+00
    9.023223E-01   -2.331461E-01
    3.897917E-01    9.499951E-01
   -8.918611E-01    7.407516E-01
   -1.062604E+00   -5.555306E-01
    8.459058E-02   -1.109270E+00
    9.076147E-01   -2.456395E-01
    3.515183E-01    6.967936E-01
   -6.241572E-01    3.987757E-01
   -5.564019E-01   -5.918666E-01
    4.206518E-01   -7.801419E-01
    8.839510E-01    9.455267E-02
    2.199206E-01    7.794460E-01
   -5.741214E-01    3.776885E-01
   -4.108562E-01   -4.264205E-01
    3.608947E-01   -4.554936E-01
    5.665662E-01    2.698718E-01
   -7.491482E-02    6.581552E-01
   -6.248589E-01    1.674557E-01
   -3.370572E-01   -4.749508E-01
    3.130924E-01   -3.905177E-01
    3.940488E-01    2.122464E-01
   -1.423603E-01    4.237619E-01
   -4.712257E-01   -3.263289E-02
   -1.263501E-01   -4.665737E-01
    3.749442E-01   -2.694832E-01
    3.369667E-01    2.398416E-01
   -1.283542E-01    3.387888E-01
   -3.292346E-01   -5.701875E-02
   -1.086847E-02   -3.349299E-01
    3.291919E-01   -1.046354E-01
    2.047376E-01    2.760379E-01
   -1.802315E-01    2.676613E-01
   -2.775025E-01   -8.209462E-02
    1.119753E-02   -2.586976E-01
    2.407108E-01   -3.984812E-02
    9.402428E-02    2.243448E-01
   -1.892493E-01    1.545943E-01
   -2.005686E-01   -1.264992E-01
    5.268479E-02   -2.134595E-01
    1.980879E-01   -8.618286E-03
    5.079916E-02    1.735756E-01
   -1.502075E-01    8.439094E-02
   -1.177517E-01   -1.220199E-01
    8.078941E-02   -1.450421E-01
    1.545886E-01    3.047990E-02
    1.562048E-02    1.439154E-01
   -1.220525E-01    4.873897E-02
   -7.108545E-02   -9.852977E-02
    7.454136E-02   -8.869760E-02
    1.020085E-01    4.624532E-02
   -1.357321E-02    1.059870E-01
   -9.774779E-02    1.741565E-02
   -4.049879E-02   -8.083978E-02
    6.144303E-02   -5.484858E-02
    6.360336E-02    4.246631E-02
   -2.297902E-02    6.855588E-02
   -6.824473E-02   -2.435547E-03
   -1.661537E-02   -6.107355E-02
    4.852646E-02   -3.059378E-02
    3.835945E-02    3.428597E-02
   -2.092334E-02    4.155486E-02
   -4.192994E-02   -8.556061E-03
   -3.308561E-03   -3.946032E-02
    3.342543E-02   -1.372476E-02
    2.075250E-02    2.449556E-02
   -1.490540E-02    2.351035E-02
   -2.299999E-02   -6.650521E-03
    1.391798E-04   -2.081926E-02
    1.760663E-02   -5.168458E-03
    9.286289E-03    1.311333E-02
   -7.488900E-03    1.137312E-02
   -1.081103E-02   -1.924163E-03
   -2.151595E-03   -8.145670E-03
    4.699102E-03   -4.210325E-03
    4.720170E-03    1.443153E-03
    1.473327E-03    4.249182E-03
   -2.805178E-03    4.139827E-03
   -6.168580E-03   -1.555315E-04
   -3.439202E-03   -6.794415E-03
    5.596439E-03   -7.083158E-03
    9.852430E-03    2.896044E-03
    6.109322E-04    1.136823E-02
   -1.169857E-02    4.446447E-03
   -8.439553E-03   -1.085762E-02
    8.631045E-03   -1.231977E-02
    1.547554E-02    4.929676E-03
   -1.354512E-04    1.724727E-02
   -1.736628E-02    5.067286E-03
   -1.014052E-02   -1.595344E-02
    1.313004E-02   -1.481272E-02
    1.874193E-02    8.849299E-03
   -3.229486E-03    2.129426E-02
   -2.187540E-02    3.093947E-03
   -9.203519E-03   -2.045112E-02
    1.750986E-02   -1.453495E-02
    1.906378E-02    1.342760E-02
   -8.084367E-03    2.273313E-02
   -2.488564E-02   -1.357978E-03
   -6.096533E-03   -2.461571E-02
    2.175670E-02   -1.291760E-02
    1.809918E-02    1.721902E-02
   -1.206988E-02    2.176193E-02
   -2.454550E-02   -6.418475E-03
   -3.691381E-04   -2.628664E-02
    2.577568E-02   -8.254006E-03
    1.574913E-02    2.212946E-02
   -1.613579E-02    2.101494E-02
   -2.365979E-02   -9.690375E-03
    3.824013E-03   -2.490047E-02
    2.571081E-02   -2.210713E-03
    9.461082E-03    2.525501E-02
   -2.178666E-02    1.718459E-02
   -2.296550E-02   -1.507571E-02
    7.235804E-03   -2.517391E-02
    2.474482E-02    6.512007E-04
    4.558843E-03    2.386724E-02
   -2.306236E-02    1.021852E-02
   -1.716384E-02   -2.042314E-02
    1.419777E-02   -2.342972E-02
    2.610464E-02    5.531468E-03
    2.293088E-03    2.471448E-02
   -2.179733E-02    7.403696E-03
   -1.124892E-02   -1.972931E-02
    1.773796E-02   -1.627322E-02
    2.221771E-02    1.303308E-02
   -4.786094E-03    2.585930E-02
   -2.475912E-02    4.138972E-03
   -1.013726E-02   -2.034406E-02
    1.626577E-02   -1.291465E-02
    1.546025E-02    1.394139E-02
   -1.095386E-02    1.981281E-02
   -2.400803E-02   -4.485658E-03
   -4.513925E-03   -2.424565E-02
    1.967471E-02   -1.186038E-02
    1.488767E-02    1.367880E-02
   -9.863569E-03    1.544340E-02
   -1.722171E-02   -7.760837E-03
    3.761429E-03   -2.075414E-02
    2.248088E-02   -3.808312E-03
    1.196798E-02    1.922366E-02
   -1.240898E-02    1.632260E-02
   -1.625184E-02   -6.577290E-03
    3.959179E-03   -1.543401E-02
    1.696536E-02    2.002533E-03
    2.963978E-03    1.927819E-02
   -1.811507E-02    1.056937E-02
   -1.639438E-02   -1.210329E-02
    4.802544E-03   -1.721698E-02
    1.486545E-02    5.406888E-04
    7.126099E-04    1.374791E-02
