 Vespa-Simulation Mixed Metabolite Output
 This file was generated by Vespa-Simulation. You can learn about and download Vespa here:
https://github.com/vespa-mrs/vespa/tree/main/vespa

 
 Output Path/Filename = /home/stud/casperc/bhome/Project1(DeepFit)/DeepFit-data-generation/DeepFitData_TE_20_lw18_2048p
 Output Loop Values = (1,1,1)  ( Loop 1 = 10, Loop 2 = 10, Loop3 Inactive )
 Output Comment
 ---------------------------------------------------------------------------
 
 
 Experiment Information
 ---------------------------------------------------------------------------
 --- Experiment 18b0168e-f5f0-4bd4-8d52-da93aba06c60 ---
 Name: SyntheticDataSetDeepFitTE20
 Public: False
 Created: 2024-10-08T09:55:07
 Comment (abbr.): 
 PI: Casper Cappelen
 b0: 127.740000
 Peak Search PPM low/high: -15.000000 / 15.000000
 Blend tol. PPM/phase: 0.001500 / 50.000000
 Pulse seq.: 43be13ae-de9a-40a1-9a2d-c872d8bjs100 (PRESS Ideal)
 0 User static parameters: 
 22 Metabolites: 2-hydroxyglutarate, alanine, choline-trimethyl, creatine, ethanolamine, gaba, glucose-beta, glutamate, glutamine, glutathione-glutamate, glutathione-glycine-cysteine, glycine, GPC-pcholine2, lactate, myo-inositol, n-acetylaspartate, NAAG-truncated, phosphocreatine, phosphorylcholine-trimethyl, phosphorylethanolamine, pyruvate, taurine
 22 Simulations: (not shown)
 
 Metabolite Formatting Information
 ---------------------------------------------------------------------------
 Name=2-hydroxyglutarate Abbr=2HG Scale=1.0 Shift=0.0 PPM Start=-3.1207465171441986 PPM End=12.528391440425866
 Name=alanine Abbr=Ala Scale=1.0 Shift=0.0 PPM Start=-3.1207465171441986 PPM End=12.528391440425866
 Name=choline-trimethyl Abbr=Cho Scale=1.0 Shift=0.0 PPM Start=-3.1207465171441986 PPM End=12.528391440425866
 Name=creatine Abbr=Cr Scale=1.0 Shift=0.0 PPM Start=-3.1207465171441986 PPM End=12.528391440425866
 Name=ethanolamine Abbr=ETA Scale=1.0 Shift=0.0 PPM Start=-3.1207465171441986 PPM End=12.528391440425866
 Name=gaba Abbr=GABA Scale=1.0 Shift=0.0 PPM Start=-3.1207465171441986 PPM End=12.528391440425866
 Name=glucose-beta Abbr=Glc Scale=1.0 Shift=0.0 PPM Start=-3.1207465171441986 PPM End=12.528391440425866
 Name=glutamate Abbr=Glu Scale=1.0 Shift=0.0 PPM Start=-3.1207465171441986 PPM End=12.528391440425866
 Name=glutamine Abbr=Gln Scale=1.0 Shift=0.0 PPM Start=-3.1207465171441986 PPM End=12.528391440425866
 Name=glycine Abbr=Gly Scale=1.0 Shift=0.0 PPM Start=-3.1207465171441986 PPM End=12.528391440425866
 Name=GPC-pcholine2 Abbr=GPC Scale=1.0 Shift=0.0 PPM Start=-3.1207465171441986 PPM End=12.528391440425866
 Name=lactate Abbr=Lac Scale=1.0 Shift=0.0 PPM Start=-3.1207465171441986 PPM End=12.528391440425866
 Name=myo-inositol Abbr=mI Scale=1.0 Shift=0.0 PPM Start=-3.1207465171441986 PPM End=12.528391440425866
 Name=n-acetylaspartate Abbr=NAA Scale=1.0 Shift=0.0 PPM Start=-3.1207465171441986 PPM End=12.528391440425866
 Name=NAAG-truncated Abbr=NAAG Scale=1.0 Shift=0.0 PPM Start=-3.1207465171441986 PPM End=12.528391440425866
 Name=phosphocreatine Abbr=PCr Scale=1.0 Shift=0.0 PPM Start=-3.1207465171441986 PPM End=12.528391440425866
 Name=phosphorylcholine-trimethyl Abbr=PCho Scale=1.0 Shift=0.0 PPM Start=-3.1207465171441986 PPM End=12.528391440425866
 Name=phosphorylethanolamine Abbr=PE Scale=1.0 Shift=0.0 PPM Start=-3.1207465171441986 PPM End=12.528391440425866
 Name=pyruvate Abbr=Pyr Scale=1.0 Shift=0.0 PPM Start=-3.1207465171441986 PPM End=12.528391440425866
 Name=taurine Abbr=Tau Scale=1.0 Shift=0.0 PPM Start=-3.1207465171441986 PPM End=12.528391440425866
 Name=glutathione-glutamate+glutathione-glycine-cysteine Abbr=GSH Scale=1.0 Shift=0.0 PPM Start=-3.1207565171441987 PPM End=12.528
   Mixture of [metab*scale] = glutathione-glutamate*1.000000 + glutathione-glycine-cysteine*1.000000
 
 ===========================================================================
 This LCModel format RAW file was created using the 
 Vespa-Simulation spectral simulation program using 
 the following settings and parameters 
 
 Sweep Width = 2000.0 Hz 
 Vector Size = 2048 points 
 Apodization = 18.0 Hz Lorentzian broadening
 B0 Field    = 127.74 MHz 
 Ref Singlet = False
  
 This data has been FFTd to be in the FREQUENCY domain
 
 $NMID ID='Ala'
 FMTDAT='(2E16.6)'
 VOLUME=1.0
 TRAMP=1.0
 $END
    1.981875E+00    3.714889E+00
    1.985602E+00    3.736792E+00
    1.989420E+00    3.758979E+00
    1.993334E+00    3.781456E+00
    1.997347E+00    3.804230E+00
    2.001461E+00    3.827309E+00
    2.005682E+00    3.850699E+00
    2.010011E+00    3.874408E+00
    2.014453E+00    3.898443E+00
    2.019013E+00    3.922813E+00
    2.023695E+00    3.947524E+00
    2.028503E+00    3.972586E+00
    2.033441E+00    3.998007E+00
    2.038514E+00    4.023796E+00
    2.043728E+00    4.049961E+00
    2.049087E+00    4.076514E+00
    2.054597E+00    4.103463E+00
    2.060264E+00    4.130819E+00
    2.066093E+00    4.158594E+00
    2.072091E+00    4.186797E+00
    2.078265E+00    4.215441E+00
    2.084623E+00    4.244537E+00
    2.091170E+00    4.274099E+00
    2.097917E+00    4.304138E+00
    2.104870E+00    4.334667E+00
    2.112039E+00    4.365701E+00
    2.119433E+00    4.397253E+00
    2.127062E+00    4.429338E+00
    2.134935E+00    4.461970E+00
    2.143063E+00    4.495166E+00
    2.151457E+00    4.528942E+00
    2.160129E+00    4.563315E+00
    2.169091E+00    4.598303E+00
    2.178357E+00    4.633924E+00
    2.187939E+00    4.670198E+00
    2.197854E+00    4.707143E+00
    2.208116E+00    4.744782E+00
    2.218741E+00    4.783136E+00
    2.229748E+00    4.822228E+00
    2.241155E+00    4.862082E+00
    2.252981E+00    4.902721E+00
    2.265249E+00    4.944171E+00
    2.277980E+00    4.986459E+00
    2.291198E+00    5.029611E+00
    2.304928E+00    5.073657E+00
    2.319195E+00    5.118627E+00
    2.334028E+00    5.164551E+00
    2.349458E+00    5.211464E+00
    2.365516E+00    5.259400E+00
    2.382239E+00    5.308395E+00
    2.399662E+00    5.358487E+00
    2.417827E+00    5.409714E+00
    2.436775E+00    5.462116E+00
    2.456553E+00    5.515736E+00
    2.477208E+00    5.570619E+00
    2.498793E+00    5.626809E+00
    2.521363E+00    5.684357E+00
    2.544980E+00    5.743312E+00
    2.569708E+00    5.803728E+00
    2.595616E+00    5.865660E+00
    2.622782E+00    5.929167E+00
    2.651286E+00    5.994308E+00
    2.681217E+00    6.061147E+00
    2.712672E+00    6.129748E+00
    2.745754E+00    6.200180E+00
    2.780575E+00    6.272514E+00
    2.817258E+00    6.346823E+00
    2.855934E+00    6.423183E+00
    2.896749E+00    6.501675E+00
    2.939859E+00    6.582379E+00
    2.985437E+00    6.665382E+00
    3.033671E+00    6.750768E+00
    3.084767E+00    6.838627E+00
    3.138951E+00    6.929049E+00
    3.196468E+00    7.022124E+00
    3.257592E+00    7.117943E+00
    3.322620E+00    7.216595E+00
    3.391880E+00    7.318168E+00
    3.465735E+00    7.422745E+00
    3.544585E+00    7.530402E+00
    3.628870E+00    7.641208E+00
    3.719078E+00    7.755218E+00
    3.815748E+00    7.872470E+00
    3.919477E+00    7.992980E+00
    4.030924E+00    8.116735E+00
    4.150821E+00    8.243682E+00
    4.279978E+00    8.373721E+00
    4.419288E+00    8.506689E+00
    4.569738E+00    8.642339E+00
    4.732414E+00    8.780324E+00
    4.908506E+00    8.920170E+00
    5.099307E+00    9.061239E+00
    5.306216E+00    9.202691E+00
    5.530725E+00    9.343435E+00
    5.774395E+00    9.482073E+00
    6.038821E+00    9.616829E+00
    6.325566E+00    9.745480E+00
    6.636065E+00    9.865276E+00
    6.971478E+00    9.972877E+00
    7.332493E+00    1.006432E+01
    7.719058E+00    1.013503E+01
    8.130060E+00    1.017997E+01
    8.562987E+00    1.019398E+01
    9.013662E+00    1.017228E+01
    9.476241E+00    1.011139E+01
    9.943717E+00    1.001008E+01
    1.040923E+01    9.870281E+00
    1.086818E+01    9.697149E+00
    1.132070E+01    9.497453E+00
    1.177298E+01    9.275948E+00
    1.223571E+01    9.030506E+00
    1.271872E+01    8.748502E+00
    1.322280E+01    8.407600E+00
    1.373282E+01    7.982615E+00
    1.421622E+01    7.456999E+00
    1.463001E+01    6.834383E+00
    1.493525E+01    6.144127E+00
    1.511388E+01    5.435982E+00
    1.517957E+01    4.763543E+00
    1.517518E+01    4.162797E+00
    1.515607E+01    3.636386E+00
    1.516629E+01    3.152269E+00
    1.521898E+01    2.658078E+00
    1.529021E+01    2.104802E+00
    1.532901E+01    1.469259E+00
    1.527943E+01    7.651865E-01
    1.510427E+01    3.781587E-02
    1.479945E+01   -6.550151E-01
    1.439285E+01   -1.265258E+00
    1.393035E+01   -1.769905E+00
    1.345734E+01   -2.173796E+00
    1.300429E+01   -2.501415E+00
    1.258106E+01   -2.783358E+00
    1.218023E+01   -3.043940E+00
    1.178599E+01   -3.294595E+00
    1.138344E+01   -3.534195E+00
    1.096433E+01   -3.753983E+00
    1.052824E+01   -3.943469E+00
    1.008062E+01   -4.094586E+00
    9.629776E+00   -4.203384E+00
    9.184261E+00   -4.269858E+00
    8.751400E+00   -4.296882E+00
    8.336643E+00   -4.289003E+00
    7.943548E+00   -4.251446E+00
    7.574059E+00   -4.189440E+00
    7.228870E+00   -4.107829E+00
    6.907784E+00   -4.010885E+00
    6.610005E+00   -3.902256E+00
    6.334372E+00   -3.784984E+00
    6.079519E+00   -3.661564E+00
    5.843993E+00   -3.534018E+00
    5.626330E+00   -3.403966E+00
    5.425107E+00   -3.272695E+00
    5.238966E+00   -3.141215E+00
    5.066637E+00   -3.010312E+00
    4.906942E+00   -2.880593E+00
    4.758797E+00   -2.752515E+00
    4.621215E+00   -2.626422E+00
    4.493293E+00   -2.502562E+00
    4.374214E+00   -2.381112E+00
    4.263235E+00   -2.262189E+00
    4.159682E+00   -2.145866E+00
    4.062944E+00   -2.032179E+00
    3.972467E+00   -1.921132E+00
    3.887750E+00   -1.812711E+00
    3.808337E+00   -1.706882E+00
    3.733815E+00   -1.603599E+00
    3.663809E+00   -1.502807E+00
    3.597978E+00   -1.404443E+00
    3.536011E+00   -1.308439E+00
    3.477625E+00   -1.214725E+00
    3.422559E+00   -1.123227E+00
