 Vespa-Simulation Mixed Metabolite Output
 This file was generated by Vespa-Simulation. You can learn about and download Vespa here:
https://github.com/vespa-mrs/vespa/tree/main/vespa

 
 Output Path/Filename = /home/stud/casperc/bhome/Project1(DeepFit)/DeepFit-data-generation/DeepFitData_TE_20_lw18_2048p
 Output Loop Values = (1,1,1)  ( Loop 1 = 10, Loop 2 = 10, Loop3 Inactive )
 Output Comment
 ---------------------------------------------------------------------------
 
 
 Experiment Information
 ---------------------------------------------------------------------------
 --- Experiment 18b0168e-f5f0-4bd4-8d52-da93aba06c60 ---
 Name: SyntheticDataSetDeepFitTE20
 Public: False
 Created: 2024-10-08T09:55:07
 Comment (abbr.): 
 PI: Casper Cappelen
 b0: 127.740000
 Peak Search PPM low/high: -15.000000 / 15.000000
 Blend tol. PPM/phase: 0.001500 / 50.000000
 Pulse seq.: 43be13ae-de9a-40a1-9a2d-c872d8bjs100 (PRESS Ideal)
 0 User static parameters: 
 22 Metabolites: 2-hydroxyglutarate, alanine, choline-trimethyl, creatine, ethanolamine, gaba, glucose-beta, glutamate, glutamine, glutathione-glutamate, glutathione-glycine-cysteine, glycine, GPC-pcholine2, lactate, myo-inositol, n-acetylaspartate, NAAG-truncated, phosphocreatine, phosphorylcholine-trimethyl, phosphorylethanolamine, pyruvate, taurine
 22 Simulations: (not shown)
 
 Metabolite Formatting Information
 ---------------------------------------------------------------------------
 Name=2-hydroxyglutarate Abbr=2HG Scale=1.0 Shift=0.0 PPM Start=-3.1207465171441986 PPM End=12.528391440425866
 Name=alanine Abbr=Ala Scale=1.0 Shift=0.0 PPM Start=-3.1207465171441986 PPM End=12.528391440425866
 Name=choline-trimethyl Abbr=Cho Scale=1.0 Shift=0.0 PPM Start=-3.1207465171441986 PPM End=12.528391440425866
 Name=creatine Abbr=Cr Scale=1.0 Shift=0.0 PPM Start=-3.1207465171441986 PPM End=12.528391440425866
 Name=ethanolamine Abbr=ETA Scale=1.0 Shift=0.0 PPM Start=-3.1207465171441986 PPM End=12.528391440425866
 Name=gaba Abbr=GABA Scale=1.0 Shift=0.0 PPM Start=-3.1207465171441986 PPM End=12.528391440425866
 Name=glucose-beta Abbr=Glc Scale=1.0 Shift=0.0 PPM Start=-3.1207465171441986 PPM End=12.528391440425866
 Name=glutamate Abbr=Glu Scale=1.0 Shift=0.0 PPM Start=-3.1207465171441986 PPM End=12.528391440425866
 Name=glutamine Abbr=Gln Scale=1.0 Shift=0.0 PPM Start=-3.1207465171441986 PPM End=12.528391440425866
 Name=glycine Abbr=Gly Scale=1.0 Shift=0.0 PPM Start=-3.1207465171441986 PPM End=12.528391440425866
 Name=GPC-pcholine2 Abbr=GPC Scale=1.0 Shift=0.0 PPM Start=-3.1207465171441986 PPM End=12.528391440425866
 Name=lactate Abbr=Lac Scale=1.0 Shift=0.0 PPM Start=-3.1207465171441986 PPM End=12.528391440425866
 Name=myo-inositol Abbr=mI Scale=1.0 Shift=0.0 PPM Start=-3.1207465171441986 PPM End=12.528391440425866
 Name=n-acetylaspartate Abbr=NAA Scale=1.0 Shift=0.0 PPM Start=-3.1207465171441986 PPM End=12.528391440425866
 Name=NAAG-truncated Abbr=NAAG Scale=1.0 Shift=0.0 PPM Start=-3.1207465171441986 PPM End=12.528391440425866
 Name=phosphocreatine Abbr=PCr Scale=1.0 Shift=0.0 PPM Start=-3.1207465171441986 PPM End=12.528391440425866
 Name=phosphorylcholine-trimethyl Abbr=PCho Scale=1.0 Shift=0.0 PPM Start=-3.1207465171441986 PPM End=12.528391440425866
 Name=phosphorylethanolamine Abbr=PE Scale=1.0 Shift=0.0 PPM Start=-3.1207465171441986 PPM End=12.528391440425866
 Name=pyruvate Abbr=Pyr Scale=1.0 Shift=0.0 PPM Start=-3.1207465171441986 PPM End=12.528391440425866
 Name=taurine Abbr=Tau Scale=1.0 Shift=0.0 PPM Start=-3.1207465171441986 PPM End=12.528391440425866
 Name=glutathione-glutamate+glutathione-glycine-cysteine Abbr=GSH Scale=1.0 Shift=0.0 PPM Start=-3.1207565171441987 PPM End=12.528
   Mixture of [metab*scale] = glutathione-glutamate*1.000000 + glutathione-glycine-cysteine*1.000000
 
 ===========================================================================
 This LCModel format RAW file was created using the 
 Vespa-Simulation spectral simulation program using 
 the following settings and parameters 
 
 Sweep Width = 2000.0 Hz 
 Vector Size = 2048 points 
 Apodization = 18.0 Hz Lorentzian broadening
 B0 Field    = 127.74 MHz 
 Ref Singlet = False
  
 $NMID ID='Cho'
 FMTDAT='(2E16.6)'
 VOLUME=1.0
 TRAMP=1.0
 $END
    8.995899E+00    3.002776E-09
    7.178006E+00    4.995296E+00
    2.953649E+00    7.971674E+00
   -2.069771E+00    8.000844E+00
   -6.094229E+00    5.234680E+00
   -7.769383E+00    7.928188E-01
   -6.639513E+00   -3.681587E+00
   -3.253421E+00   -6.624356E+00
    1.082429E+00   -7.092177E+00
    4.801780E+00   -5.057859E+00
    6.639867E+00   -1.369376E+00
    6.058345E+00    2.594319E+00
    3.393403E+00    5.434046E+00
   -3.097807E-01    6.220082E+00
   -3.701004E+00    4.790976E+00
   -5.613292E+00    1.767663E+00
   -5.460333E+00   -1.706495E+00
   -3.409197E+00   -4.393543E+00
   -2.806182E-01   -5.398576E+00
    2.773738E+00   -4.463281E+00
    4.691428E+00   -2.021039E+00
    4.865429E+00    9.924165E-01
    3.330997E+00    3.493418E+00
    7.179866E-01    4.636905E+00
   -2.001815E+00    4.098363E+00
   -3.872854E+00    2.158473E+00
   -4.288567E+00   -4.282318E-01
   -3.183963E+00   -2.722925E+00
   -1.028484E+00   -3.940459E+00
    1.367327E+00   -3.715060E+00
    3.153743E+00   -2.204924E+00
    3.740557E+00   -8.121136E-03
    2.988960E+00    2.070483E+00
    1.235178E+00    3.311573E+00
   -8.532614E-01    3.328005E+00
   -2.528630E+00    2.181535E+00
   -3.228776E+00    3.365731E-01
   -2.762975E+00   -1.524239E+00
   -1.358155E+00   -2.750235E+00
    4.434539E-01   -2.948388E+00
    1.990859E+00   -2.106170E+00
    2.757841E+00   -5.749896E-01
    2.519605E+00    1.072484E+00
    1.414764E+00    2.254665E+00
   -1.230875E-01    2.584404E+00
   -1.533167E+00    1.993599E+00
   -2.330133E+00    7.393300E-01
   -2.269580E+00   -7.038797E-01
   -1.419932E+00   -1.821732E+00
   -1.214115E-01   -2.241834E+00
    1.147875E+00   -1.856018E+00
    1.946319E+00   -8.434772E-01
    2.021154E+00    4.077070E-01
    1.386180E+00    1.447466E+00
    3.022546E-01    1.924471E+00
   -8.273501E-01    1.703220E+00
   -1.605751E+00    8.994994E-01
   -1.780527E+00   -1.738899E-01
   -1.324005E+00   -1.127306E+00
   -4.304074E-01   -1.634501E+00
    5.641034E-01   -1.543009E+00
    1.306759E+00   -9.178307E-01
    1.552145E+00   -6.739763E-03
    1.242058E+00    8.564018E-01
    5.154352E-01    1.372856E+00
   -3.509751E-01    1.381461E+00
   -1.047016E+00    9.072691E-01
   -1.339041E+00    1.425044E-01
   -1.147408E+00   -6.297613E-01
   -5.657831E-01   -1.139461E+00
    1.812594E-01   -1.223188E+00
    8.237322E-01   -8.752174E-01
    1.143089E+00   -2.409332E-01
    1.045716E+00    4.424354E-01
    5.886200E-01    9.335574E-01
   -4.871991E-02    1.071586E+00
   -6.337923E-01    8.278661E-01
   -9.652626E-01    3.085773E-01
   -9.413932E-01   -2.897359E-01
   -5.901657E-01   -7.538067E-01
   -5.233685E-02   -9.290294E-01
    4.740408E-01   -7.702173E-01
    8.057997E-01   -3.512764E-01
    8.378787E-01    1.671123E-01
    5.756577E-01    5.985019E-01
    1.269602E-01    7.970684E-01
   -3.412398E-01    7.063646E-01
   -6.643860E-01    3.740812E-01
   -7.377105E-01   -7.042971E-02
   -5.494178E-01   -4.657535E-01
   -1.797256E-01   -6.765900E-01
    2.322362E-01   -6.395448E-01
    5.403333E-01   -3.812695E-01
    6.427294E-01   -4.177366E-03
    5.150705E-01    3.534842E-01
    2.146526E-01    5.679503E-01
   -1.440741E-01    5.722544E-01
   -4.326379E-01    3.765299E-01
   -5.541754E-01    6.020180E-02
   -4.755147E-01   -2.596385E-01
   -2.351955E-01   -4.711188E-01
    7.392634E-02   -5.064062E-01
    3.401063E-01   -3.629496E-01
    4.728153E-01   -1.007228E-01
    4.331014E-01    1.821419E-01
    2.443926E-01    3.857384E-01
   -1.918835E-02    4.433958E-01
   -2.614652E-01    3.430592E-01
   -3.990332E-01    1.285132E-01
   -3.896700E-01   -1.189986E-01
   -2.447874E-01   -3.112584E-01
   -2.247513E-02   -3.841955E-01
    1.953607E-01   -3.189597E-01
    3.329127E-01   -1.459948E-01
    3.466217E-01    6.835552E-02
    2.385590E-01    2.469575E-01
    5.321257E-02    3.294381E-01
   -1.404401E-01    2.923393E-01
   -2.743238E-01    1.552378E-01
   -3.050120E-01   -2.845589E-02
   -2.275196E-01   -1.920205E-01
   -7.489468E-02   -2.794837E-01
    9.541047E-02   -2.645238E-01
    2.229588E-01   -1.580455E-01
    2.655932E-01   -2.306572E-03
    2.131448E-01    1.456024E-01
    8.919576E-02    2.344728E-01
   -5.901408E-02    2.365549E-01
   -1.783964E-01    1.559381E-01
   -2.288719E-01    2.536918E-02
   -1.966530E-01   -1.068185E-01
   -9.756972E-02   -1.943774E-01
    3.007528E-02   -2.092173E-01
    1.401343E-01   -1.501944E-01
    1.951610E-01   -4.201500E-02
    1.790008E-01    7.482524E-02
    1.012482E-01    1.590555E-01
   -7.522277E-03    1.830820E-01
   -1.076342E-01    1.418649E-01
   -1.646103E-01    5.341192E-02
   -1.609561E-01   -4.877393E-02
   -1.013149E-01   -1.282562E-01
   -9.618196E-03   -1.585487E-01
    8.034160E-02   -1.318089E-01
    1.372524E-01   -6.054832E-02
    1.430934E-01    2.789403E-02
    9.865615E-02    1.016838E-01
    2.224810E-02    1.358751E-01
   -5.767988E-02    1.207327E-01
   -1.130293E-01    6.428473E-02
   -1.258441E-01   -1.146677E-02
   -9.401946E-02   -7.899881E-02
   -3.114204E-02   -1.152050E-01
    3.911080E-02   -1.091808E-01
    9.180392E-02   -6.537753E-02
    1.095189E-01   -1.187396E-03
    8.801663E-02    5.984740E-02
    3.698456E-02    9.659541E-02
   -2.411988E-02    9.757906E-02
   -7.340177E-02    6.444833E-02
   -9.432353E-02    1.066126E-02
   -8.115416E-02   -4.385508E-02
   -4.038772E-02   -8.002897E-02
    1.220915E-02   -8.625303E-02
    5.761709E-02   -6.202106E-02
    8.038478E-02   -1.748706E-02
    7.382601E-02    3.066871E-02
    4.186175E-02    6.544243E-02
   -2.936437E-03    7.543567E-02
   -4.421572E-02    5.853938E-02
   -6.776197E-02    2.214873E-02
   -6.634284E-02   -1.994748E-02
   -4.184378E-02   -5.273647E-02
   -4.105798E-03   -6.529015E-02
