 Vespa-Simulation Mixed Metabolite Output
 This file was generated by Vespa-Simulation. You can learn about and download Vespa here:
https://github.com/vespa-mrs/vespa/tree/main/vespa

 
 Output Path/Filename = /home/stud/casperc/bhome/Project1(DeepFit)/DeepFit-data-generation/DeepFitData_TE_20_lw18_2048p
 Output Loop Values = (1,1,1)  ( Loop 1 = 10, Loop 2 = 10, Loop3 Inactive )
 Output Comment
 ---------------------------------------------------------------------------
 
 
 Experiment Information
 ---------------------------------------------------------------------------
 --- Experiment 18b0168e-f5f0-4bd4-8d52-da93aba06c60 ---
 Name: SyntheticDataSetDeepFitTE20
 Public: False
 Created: 2024-10-08T09:55:07
 Comment (abbr.): 
 PI: Casper Cappelen
 b0: 127.740000
 Peak Search PPM low/high: -15.000000 / 15.000000
 Blend tol. PPM/phase: 0.001500 / 50.000000
 Pulse seq.: 43be13ae-de9a-40a1-9a2d-c872d8bjs100 (PRESS Ideal)
 0 User static parameters: 
 22 Metabolites: 2-hydroxyglutarate, alanine, choline-trimethyl, creatine, ethanolamine, gaba, glucose-beta, glutamate, glutamine, glutathione-glutamate, glutathione-glycine-cysteine, glycine, GPC-pcholine2, lactate, myo-inositol, n-acetylaspartate, NAAG-truncated, phosphocreatine, phosphorylcholine-trimethyl, phosphorylethanolamine, pyruvate, taurine
 22 Simulations: (not shown)
 
 Metabolite Formatting Information
 ---------------------------------------------------------------------------
 Name=2-hydroxyglutarate Abbr=2HG Scale=1.0 Shift=0.0 PPM Start=-3.1207465171441986 PPM End=12.528391440425866
 Name=alanine Abbr=Ala Scale=1.0 Shift=0.0 PPM Start=-3.1207465171441986 PPM End=12.528391440425866
 Name=choline-trimethyl Abbr=Cho Scale=1.0 Shift=0.0 PPM Start=-3.1207465171441986 PPM End=12.528391440425866
 Name=creatine Abbr=Cr Scale=1.0 Shift=0.0 PPM Start=-3.1207465171441986 PPM End=12.528391440425866
 Name=ethanolamine Abbr=ETA Scale=1.0 Shift=0.0 PPM Start=-3.1207465171441986 PPM End=12.528391440425866
 Name=gaba Abbr=GABA Scale=1.0 Shift=0.0 PPM Start=-3.1207465171441986 PPM End=12.528391440425866
 Name=glucose-beta Abbr=Glc Scale=1.0 Shift=0.0 PPM Start=-3.1207465171441986 PPM End=12.528391440425866
 Name=glutamate Abbr=Glu Scale=1.0 Shift=0.0 PPM Start=-3.1207465171441986 PPM End=12.528391440425866
 Name=glutamine Abbr=Gln Scale=1.0 Shift=0.0 PPM Start=-3.1207465171441986 PPM End=12.528391440425866
 Name=glycine Abbr=Gly Scale=1.0 Shift=0.0 PPM Start=-3.1207465171441986 PPM End=12.528391440425866
 Name=GPC-pcholine2 Abbr=GPC Scale=1.0 Shift=0.0 PPM Start=-3.1207465171441986 PPM End=12.528391440425866
 Name=lactate Abbr=Lac Scale=1.0 Shift=0.0 PPM Start=-3.1207465171441986 PPM End=12.528391440425866
 Name=myo-inositol Abbr=mI Scale=1.0 Shift=0.0 PPM Start=-3.1207465171441986 PPM End=12.528391440425866
 Name=n-acetylaspartate Abbr=NAA Scale=1.0 Shift=0.0 PPM Start=-3.1207465171441986 PPM End=12.528391440425866
 Name=NAAG-truncated Abbr=NAAG Scale=1.0 Shift=0.0 PPM Start=-3.1207465171441986 PPM End=12.528391440425866
 Name=phosphocreatine Abbr=PCr Scale=1.0 Shift=0.0 PPM Start=-3.1207465171441986 PPM End=12.528391440425866
 Name=phosphorylcholine-trimethyl Abbr=PCho Scale=1.0 Shift=0.0 PPM Start=-3.1207465171441986 PPM End=12.528391440425866
 Name=phosphorylethanolamine Abbr=PE Scale=1.0 Shift=0.0 PPM Start=-3.1207465171441986 PPM End=12.528391440425866
 Name=pyruvate Abbr=Pyr Scale=1.0 Shift=0.0 PPM Start=-3.1207465171441986 PPM End=12.528391440425866
 Name=taurine Abbr=Tau Scale=1.0 Shift=0.0 PPM Start=-3.1207465171441986 PPM End=12.528391440425866
 Name=glutathione-glutamate+glutathione-glycine-cysteine Abbr=GSH Scale=1.0 Shift=0.0 PPM Start=-3.1207565171441987 PPM End=12.528
   Mixture of [metab*scale] = glutathione-glutamate*1.000000 + glutathione-glycine-cysteine*1.000000
 
 ===========================================================================
 This LCModel format RAW file was created using the 
 Vespa-Simulation spectral simulation program using 
 the following settings and parameters 
 
 Sweep Width = 2000.0 Hz 
 Vector Size = 2048 points 
 Apodization = 18.0 Hz Lorentzian broadening
 B0 Field    = 127.74 MHz 
 Ref Singlet = False
  
 This data has been FFTd to be in the FREQUENCY domain
 
 $NMID ID='Cho'
 FMTDAT='(2E16.6)'
 VOLUME=1.0
 TRAMP=1.0
 $END
    5.206082E+00    1.430584E+01
    5.213039E+00    1.438275E+01
    5.220105E+00    1.446041E+01
    5.227280E+00    1.453884E+01
    5.234566E+00    1.461805E+01
    5.241967E+00    1.469805E+01
    5.249483E+00    1.477885E+01
    5.257116E+00    1.486047E+01
    5.264871E+00    1.494292E+01
    5.272751E+00    1.502621E+01
    5.280759E+00    1.511035E+01
    5.288900E+00    1.519536E+01
    5.297179E+00    1.528126E+01
    5.305597E+00    1.536805E+01
    5.314158E+00    1.545574E+01
    5.322861E+00    1.554434E+01
    5.331708E+00    1.563388E+01
    5.340698E+00    1.572437E+01
    5.349832E+00    1.581582E+01
    5.359111E+00    1.590825E+01
    5.368539E+00    1.600168E+01
    5.378119E+00    1.609614E+01
    5.387855E+00    1.619163E+01
    5.397753E+00    1.628818E+01
    5.407817E+00    1.638581E+01
    5.418054E+00    1.648454E+01
    5.428468E+00    1.658438E+01
    5.439066E+00    1.668536E+01
    5.449853E+00    1.678749E+01
    5.460835E+00    1.689079E+01
    5.472016E+00    1.699528E+01
    5.483403E+00    1.710099E+01
    5.494999E+00    1.720793E+01
    5.506808E+00    1.731612E+01
    5.518835E+00    1.742559E+01
    5.531084E+00    1.753636E+01
    5.543560E+00    1.764845E+01
    5.556269E+00    1.776188E+01
    5.569216E+00    1.787669E+01
    5.582407E+00    1.799290E+01
    5.595847E+00    1.811053E+01
    5.609544E+00    1.822961E+01
    5.623504E+00    1.835018E+01
    5.637733E+00    1.847225E+01
    5.652240E+00    1.859585E+01
    5.667032E+00    1.872103E+01
    5.682116E+00    1.884780E+01
    5.697501E+00    1.897619E+01
    5.713194E+00    1.910625E+01
    5.729201E+00    1.923799E+01
    5.745532E+00    1.937146E+01
    5.762193E+00    1.950668E+01
    5.779194E+00    1.964371E+01
    5.796544E+00    1.978256E+01
    5.814253E+00    1.992329E+01
    5.832330E+00    2.006592E+01
    5.850786E+00    2.021051E+01
    5.869632E+00    2.035708E+01
    5.888878E+00    2.050569E+01
    5.908539E+00    2.065637E+01
    5.928625E+00    2.080918E+01
    5.949151E+00    2.096415E+01
    5.970130E+00    2.112133E+01
    5.991575E+00    2.128078E+01
    6.013500E+00    2.144253E+01
    6.035918E+00    2.160664E+01
    6.058844E+00    2.177316E+01
    6.082293E+00    2.194215E+01
    6.106280E+00    2.211366E+01
    6.130822E+00    2.228774E+01
    6.155937E+00    2.246447E+01
    6.181641E+00    2.264390E+01
    6.207953E+00    2.282609E+01
    6.234893E+00    2.301110E+01
    6.262480E+00    2.319902E+01
    6.290737E+00    2.338989E+01
    6.319686E+00    2.358380E+01
    6.349350E+00    2.378083E+01
    6.379753E+00    2.398103E+01
    6.410920E+00    2.418450E+01
    6.442876E+00    2.439131E+01
    6.475647E+00    2.460154E+01
    6.509261E+00    2.481529E+01
    6.543747E+00    2.503264E+01
    6.579133E+00    2.525368E+01
    6.615453E+00    2.547851E+01
    6.652738E+00    2.570723E+01
    6.691023E+00    2.593993E+01
    6.730345E+00    2.617674E+01
    6.770741E+00    2.641775E+01
    6.812252E+00    2.666308E+01
    6.854919E+00    2.691285E+01
    6.898786E+00    2.716718E+01
    6.943901E+00    2.742620E+01
    6.990310E+00    2.769003E+01
    7.038064E+00    2.795881E+01
    7.087214E+00    2.823268E+01
    7.137814E+00    2.851178E+01
    7.189919E+00    2.879627E+01
    7.243590E+00    2.908630E+01
    7.298889E+00    2.938204E+01
    7.355883E+00    2.968366E+01
    7.414640E+00    2.999134E+01
    7.475237E+00    3.030525E+01
    7.537751E+00    3.062561E+01
    7.602264E+00    3.095259E+01
    7.668864E+00    3.128641E+01
    7.737640E+00    3.162728E+01
    7.808688E+00    3.197542E+01
    7.882107E+00    3.233108E+01
    7.958002E+00    3.269449E+01
    8.036483E+00    3.306591E+01
    8.117670E+00    3.344561E+01
    8.201687E+00    3.383387E+01
    8.288669E+00    3.423097E+01
    8.378756E+00    3.463722E+01
    8.472098E+00    3.505295E+01
    8.568854E+00    3.547847E+01
    8.669191E+00    3.591414E+01
    8.773288E+00    3.636032E+01
    8.881334E+00    3.681739E+01
    8.993530E+00    3.728576E+01
    9.110088E+00    3.776583E+01
    9.231238E+00    3.825805E+01
    9.357222E+00    3.876289E+01
    9.488299E+00    3.928082E+01
    9.624746E+00    3.981236E+01
    9.766860E+00    4.035803E+01
    9.914956E+00    4.091841E+01
    1.006937E+01    4.149409E+01
    1.023048E+01    4.208569E+01
    1.039865E+01    4.269386E+01
    1.057432E+01    4.331931E+01
    1.075793E+01    4.396276E+01
    1.094996E+01    4.462498E+01
    1.115093E+01    4.530680E+01
    1.136140E+01    4.600907E+01
    1.158197E+01    4.673270E+01
    1.181330E+01    4.747867E+01
    1.205608E+01    4.824799E+01
    1.231109E+01    4.904175E+01
    1.257915E+01    4.986109E+01
    1.286115E+01    5.070725E+01
    1.315807E+01    5.158151E+01
    1.347098E+01    5.248525E+01
    1.380102E+01    5.341993E+01
    1.414946E+01    5.438711E+01
    1.451768E+01    5.538845E+01
    1.490719E+01    5.642572E+01
    1.531963E+01    5.750079E+01
    1.575682E+01    5.861567E+01
    1.622076E+01    5.977251E+01
    1.671363E+01    6.097360E+01
    1.723787E+01    6.222138E+01
    1.779615E+01    6.351847E+01
    1.839142E+01    6.486765E+01
    1.902699E+01    6.627193E+01
    1.970649E+01    6.773449E+01
    2.043401E+01    6.925876E+01
    2.121409E+01    7.084841E+01
    2.205179E+01    7.250733E+01
    2.295282E+01    7.423971E+01
    2.392357E+01    7.605002E+01
    2.497124E+01    7.794303E+01
    2.610396E+01    7.992379E+01
    2.733092E+01    8.199769E+01
    2.866255E+01    8.417044E+01
    3.011072E+01    8.644804E+01
    3.168895E+01    8.883679E+01
    3.341270E+01    9.134323E+01
    3.529968E+01    9.397411E+01
    3.737028E+01    9.673625E+01
