 Vespa-Simulation Mixed Metabolite Output
 This file was generated by Vespa-Simulation. You can learn about and download Vespa here:
https://github.com/vespa-mrs/vespa/tree/main/vespa

 
 Output Path/Filename = /home/stud/casperc/bhome/Project1(DeepFit)/DeepFit-data-generation/DeepFitData_TE_20_lw18_2048p
 Output Loop Values = (1,1,1)  ( Loop 1 = 10, Loop 2 = 10, Loop3 Inactive )
 Output Comment
 ---------------------------------------------------------------------------
 
 
 Experiment Information
 ---------------------------------------------------------------------------
 --- Experiment 18b0168e-f5f0-4bd4-8d52-da93aba06c60 ---
 Name: SyntheticDataSetDeepFitTE20
 Public: False
 Created: 2024-10-08T09:55:07
 Comment (abbr.): 
 PI: Casper Cappelen
 b0: 127.740000
 Peak Search PPM low/high: -15.000000 / 15.000000
 Blend tol. PPM/phase: 0.001500 / 50.000000
 Pulse seq.: 43be13ae-de9a-40a1-9a2d-c872d8bjs100 (PRESS Ideal)
 0 User static parameters: 
 22 Metabolites: 2-hydroxyglutarate, alanine, choline-trimethyl, creatine, ethanolamine, gaba, glucose-beta, glutamate, glutamine, glutathione-glutamate, glutathione-glycine-cysteine, glycine, GPC-pcholine2, lactate, myo-inositol, n-acetylaspartate, NAAG-truncated, phosphocreatine, phosphorylcholine-trimethyl, phosphorylethanolamine, pyruvate, taurine
 22 Simulations: (not shown)
 
 Metabolite Formatting Information
 ---------------------------------------------------------------------------
 Name=2-hydroxyglutarate Abbr=2HG Scale=1.0 Shift=0.0 PPM Start=-3.1207465171441986 PPM End=12.528391440425866
 Name=alanine Abbr=Ala Scale=1.0 Shift=0.0 PPM Start=-3.1207465171441986 PPM End=12.528391440425866
 Name=choline-trimethyl Abbr=Cho Scale=1.0 Shift=0.0 PPM Start=-3.1207465171441986 PPM End=12.528391440425866
 Name=creatine Abbr=Cr Scale=1.0 Shift=0.0 PPM Start=-3.1207465171441986 PPM End=12.528391440425866
 Name=ethanolamine Abbr=ETA Scale=1.0 Shift=0.0 PPM Start=-3.1207465171441986 PPM End=12.528391440425866
 Name=gaba Abbr=GABA Scale=1.0 Shift=0.0 PPM Start=-3.1207465171441986 PPM End=12.528391440425866
 Name=glucose-beta Abbr=Glc Scale=1.0 Shift=0.0 PPM Start=-3.1207465171441986 PPM End=12.528391440425866
 Name=glutamate Abbr=Glu Scale=1.0 Shift=0.0 PPM Start=-3.1207465171441986 PPM End=12.528391440425866
 Name=glutamine Abbr=Gln Scale=1.0 Shift=0.0 PPM Start=-3.1207465171441986 PPM End=12.528391440425866
 Name=glycine Abbr=Gly Scale=1.0 Shift=0.0 PPM Start=-3.1207465171441986 PPM End=12.528391440425866
 Name=GPC-pcholine2 Abbr=GPC Scale=1.0 Shift=0.0 PPM Start=-3.1207465171441986 PPM End=12.528391440425866
 Name=lactate Abbr=Lac Scale=1.0 Shift=0.0 PPM Start=-3.1207465171441986 PPM End=12.528391440425866
 Name=myo-inositol Abbr=mI Scale=1.0 Shift=0.0 PPM Start=-3.1207465171441986 PPM End=12.528391440425866
 Name=n-acetylaspartate Abbr=NAA Scale=1.0 Shift=0.0 PPM Start=-3.1207465171441986 PPM End=12.528391440425866
 Name=NAAG-truncated Abbr=NAAG Scale=1.0 Shift=0.0 PPM Start=-3.1207465171441986 PPM End=12.528391440425866
 Name=phosphocreatine Abbr=PCr Scale=1.0 Shift=0.0 PPM Start=-3.1207465171441986 PPM End=12.528391440425866
 Name=phosphorylcholine-trimethyl Abbr=PCho Scale=1.0 Shift=0.0 PPM Start=-3.1207465171441986 PPM End=12.528391440425866
 Name=phosphorylethanolamine Abbr=PE Scale=1.0 Shift=0.0 PPM Start=-3.1207465171441986 PPM End=12.528391440425866
 Name=pyruvate Abbr=Pyr Scale=1.0 Shift=0.0 PPM Start=-3.1207465171441986 PPM End=12.528391440425866
 Name=taurine Abbr=Tau Scale=1.0 Shift=0.0 PPM Start=-3.1207465171441986 PPM End=12.528391440425866
 Name=glutathione-glutamate+glutathione-glycine-cysteine Abbr=GSH Scale=1.0 Shift=0.0 PPM Start=-3.1207565171441987 PPM End=12.528
   Mixture of [metab*scale] = glutathione-glutamate*1.000000 + glutathione-glycine-cysteine*1.000000
 
 ===========================================================================
 This LCModel format RAW file was created using the 
 Vespa-Simulation spectral simulation program using 
 the following settings and parameters 
 
 Sweep Width = 2000.0 Hz 
 Vector Size = 2048 points 
 Apodization = 18.0 Hz Lorentzian broadening
 B0 Field    = 127.74 MHz 
 Ref Singlet = False
  
 $NMID ID='Cr'
 FMTDAT='(2E16.6)'
 VOLUME=1.0
 TRAMP=1.0
 $END
    6.000000E+00    1.049508E-16
    4.821101E+00    1.732925E+00
    2.172372E+00    2.932714E+00
   -7.530071E-01    3.325487E+00
   -2.757782E+00    2.870662E+00
   -3.182620E+00    1.783571E+00
   -2.154143E+00    4.815767E-01
   -4.443537E-01   -5.517920E-01
    9.589525E-01   -9.510903E-01
    1.341174E+00   -6.294867E-01
    5.719365E-01    1.655246E-01
   -8.913769E-01    9.463859E-01
   -2.277301E+00    1.205068E+00
   -2.892452E+00    6.637675E-01
   -2.435288E+00   -5.660841E-01
   -1.095106E+00   -2.005372E+00
    5.821776E-01   -3.013329E+00
    1.968843E+00   -3.087346E+00
    2.627027E+00   -2.112274E+00
    2.457103E+00   -4.326179E-01
    1.678808E+00    1.294084E+00
    6.846229E-01    2.396405E+00
   -1.466656E-01    2.496247E+00
   -5.894837E-01    1.674591E+00
   -6.182506E-01    4.161910E-01
   -3.669176E-01   -6.363706E-01
   -4.145354E-02   -9.952729E-01
    1.685081E-01   -5.527028E-01
    1.491011E-01    3.876890E-01
   -1.144402E-01    1.280558E+00
   -5.435149E-01    1.618203E+00
   -9.919230E-01    1.178268E+00
   -1.287257E+00    1.212305E-01
   -1.284445E+00   -1.101087E+00
   -9.215911E-01   -1.970783E+00
   -2.585602E-01   -2.146105E+00
    5.245519E-01   -1.604715E+00
    1.180279E+00   -6.278209E-01
    1.486230E+00    3.532272E-01
    1.341020E+00    9.634355E-01
    8.174708E-01    1.041914E+00
    1.411649E-01    6.836572E-01
   -4.036383E-01    1.596257E-01
   -6.015882E-01   -2.320839E-01
   -4.067665E-01   -3.062334E-01
    3.487773E-02   -5.858002E-02
    4.559518E-01    3.583760E-01
    5.992950E-01    7.264709E-01
    3.469656E-01    8.678789E-01
   -2.176726E-01    7.162953E-01
   -8.469141E-01    3.287385E-01
   -1.247096E+00   -1.553643E-01
   -1.220380E+00   -5.795557E-01
   -7.599002E-01   -8.280885E-01
   -5.218245E-02   -8.561770E-01
    6.126564E-01   -6.893699E-01
    9.773466E-01   -4.021299E-01
    9.329613E-01   -8.881134E-02
    5.591371E-01    1.634799E-01
    7.325953E-02    2.959765E-01
   -2.817420E-01    2.921194E-01
   -3.535331E-01    1.820038E-01
   -1.444675E-01    3.381232E-02
    2.031293E-01   -6.936316E-02
    4.873605E-01   -6.260757E-02
    5.489799E-01    6.980117E-02
    3.447820E-01    2.808992E-01
   -4.017317E-02    4.751380E-01
   -4.415189E-01    5.483309E-01
   -6.966613E-01    4.371986E-01
   -7.168547E-01    1.548272E-01
   -5.178480E-01   -2.072236E-01
   -2.004500E-01   -5.147892E-01
    1.037353E-01   -6.500637E-01
    2.917211E-01   -5.659541E-01
    3.266017E-01   -3.090224E-01
    2.400954E-01    1.558531E-03
    1.054566E-01    2.297706E-01
   -1.692422E-03    2.863235E-01
   -3.519266E-02    1.691536E-01
    8.956294E-03   -3.896875E-02
    9.975816E-02   -2.139692E-01
    1.902690E-01   -2.530095E-01
    2.379106E-01   -1.249435E-01
    2.184342E-01    1.158290E-01
    1.309789E-01    3.576771E-01
   -4.084227E-03    4.870409E-01
   -1.518270E-01    4.426923E-01
   -2.720598E-01    2.427553E-01
   -3.300360E-01   -2.710647E-02
   -3.073513E-01   -2.565027E-01
   -2.097989E-01   -3.617501E-01
   -6.819899E-02   -3.209991E-01
    7.028439E-02   -1.777176E-01
    1.591615E-01   -1.380699E-02
    1.717308E-01    9.225294E-02
    1.135497E-01    1.009698E-01
    2.126798E-02    2.520958E-02
   -5.332461E-02   -8.240026E-02
   -6.760733E-02   -1.590402E-01
   -9.410284E-03   -1.623285E-01
    9.560082E-02   -8.770048E-02
    1.949980E-01    3.366546E-02
    2.345181E-01    1.526697E-01
    1.849434E-01    2.253847E-01
    5.760804E-02    2.304015E-01
   -9.955616E-02    1.738552E-01
   -2.237478E-01    8.233096E-02
   -2.664205E-01   -1.080130E-02
   -2.154946E-01   -7.860077E-02
   -9.993628E-02   -1.082500E-01
    2.518008E-02   -1.017842E-01
    1.054212E-01   -7.182159E-02
    1.122218E-01   -3.528114E-02
    5.449024E-02   -7.609392E-03
   -2.837213E-02    1.313767E-03
   -8.765567E-02   -1.049732E-02
   -8.969387E-02   -3.667011E-02
   -3.140217E-02   -6.416406E-02
    5.991726E-02   -7.742577E-02
    1.413442E-01   -6.438179E-02
    1.755601E-01   -2.230488E-02
    1.478738E-01    3.918169E-02
    7.137735E-02    1.002138E-01
   -2.116584E-02    1.379626E-01
   -9.363535E-02    1.364434E-01
   -1.225974E-01    9.438213E-02
   -1.057785E-01    2.701063E-02
   -5.998478E-02   -3.975958E-02
   -1.084798E-02   -8.056155E-02
    1.979812E-02   -8.205564E-02
    2.278308E-02   -4.902759E-02
    3.388269E-03   -1.943738E-03
   -2.357103E-02    3.309106E-02
   -4.195374E-02    3.712851E-02
   -4.155573E-02    7.632081E-03
   -2.147662E-02   -4.039625E-02
    1.098793E-02   -8.195480E-02
    4.445995E-02   -9.445815E-02
    6.817965E-02   -6.883938E-02
    7.544660E-02   -1.392222E-02
    6.497406E-02    4.794310E-02
    4.043642E-02    9.160317E-02
    8.925225E-03    1.007779E-01
   -2.107199E-02    7.503761E-02
   -4.187330E-02    2.897069E-02
   -4.867190E-02   -1.559212E-02
   -4.113192E-02   -4.015487E-02
   -2.376587E-02   -3.770280E-02
   -4.587671E-03   -1.474612E-02
    7.871256E-03    1.318540E-02
    8.197917E-03    2.986440E-02
   -3.234089E-03    2.619672E-02
   -2.001503E-02    3.891342E-03
   -3.236311E-02   -2.631877E-02
   -3.171015E-02   -5.049029E-02
   -1.510752E-02   -5.814148E-02
    1.278894E-02   -4.659184E-02
    4.135064E-02   -2.127834E-02
    5.865497E-02    7.540046E-03
    5.705080E-02    2.969591E-02
    3.688729E-02    3.917386E-02
    6.517739E-03    3.574229E-02
   -2.151575E-02    2.388309E-02
   -3.628736E-02    1.004336E-02
   -3.345811E-02   -2.702678E-04
   -1.700400E-02   -4.328668E-03
    3.081868E-03   -2.505936E-03
    1.588695E-02    2.613098E-03
    1.491480E-02    7.625198E-03
    1.044048E-03    9.594801E-03
   -1.823341E-02    6.903112E-03
   -3.275935E-02   -3.749582E-04
   -3.476925E-02   -1.049812E-02
