 Vespa-Simulation Mixed Metabolite Output
 This file was generated by Vespa-Simulation. You can learn about and download Vespa here:
https://github.com/vespa-mrs/vespa/tree/main/vespa

 
 Output Path/Filename = /home/stud/casperc/bhome/Project1(DeepFit)/DeepFit-data-generation/DeepFitData_TE_20_lw18_2048p
 Output Loop Values = (1,1,1)  ( Loop 1 = 10, Loop 2 = 10, Loop3 Inactive )
 Output Comment
 ---------------------------------------------------------------------------
 
 
 Experiment Information
 ---------------------------------------------------------------------------
 --- Experiment 18b0168e-f5f0-4bd4-8d52-da93aba06c60 ---
 Name: SyntheticDataSetDeepFitTE20
 Public: False
 Created: 2024-10-08T09:55:07
 Comment (abbr.): 
 PI: Casper Cappelen
 b0: 127.740000
 Peak Search PPM low/high: -15.000000 / 15.000000
 Blend tol. PPM/phase: 0.001500 / 50.000000
 Pulse seq.: 43be13ae-de9a-40a1-9a2d-c872d8bjs100 (PRESS Ideal)
 0 User static parameters: 
 22 Metabolites: 2-hydroxyglutarate, alanine, choline-trimethyl, creatine, ethanolamine, gaba, glucose-beta, glutamate, glutamine, glutathione-glutamate, glutathione-glycine-cysteine, glycine, GPC-pcholine2, lactate, myo-inositol, n-acetylaspartate, NAAG-truncated, phosphocreatine, phosphorylcholine-trimethyl, phosphorylethanolamine, pyruvate, taurine
 22 Simulations: (not shown)
 
 Metabolite Formatting Information
 ---------------------------------------------------------------------------
 Name=2-hydroxyglutarate Abbr=2HG Scale=1.0 Shift=0.0 PPM Start=-3.1207465171441986 PPM End=12.528391440425866
 Name=alanine Abbr=Ala Scale=1.0 Shift=0.0 PPM Start=-3.1207465171441986 PPM End=12.528391440425866
 Name=choline-trimethyl Abbr=Cho Scale=1.0 Shift=0.0 PPM Start=-3.1207465171441986 PPM End=12.528391440425866
 Name=creatine Abbr=Cr Scale=1.0 Shift=0.0 PPM Start=-3.1207465171441986 PPM End=12.528391440425866
 Name=ethanolamine Abbr=ETA Scale=1.0 Shift=0.0 PPM Start=-3.1207465171441986 PPM End=12.528391440425866
 Name=gaba Abbr=GABA Scale=1.0 Shift=0.0 PPM Start=-3.1207465171441986 PPM End=12.528391440425866
 Name=glucose-beta Abbr=Glc Scale=1.0 Shift=0.0 PPM Start=-3.1207465171441986 PPM End=12.528391440425866
 Name=glutamate Abbr=Glu Scale=1.0 Shift=0.0 PPM Start=-3.1207465171441986 PPM End=12.528391440425866
 Name=glutamine Abbr=Gln Scale=1.0 Shift=0.0 PPM Start=-3.1207465171441986 PPM End=12.528391440425866
 Name=glycine Abbr=Gly Scale=1.0 Shift=0.0 PPM Start=-3.1207465171441986 PPM End=12.528391440425866
 Name=GPC-pcholine2 Abbr=GPC Scale=1.0 Shift=0.0 PPM Start=-3.1207465171441986 PPM End=12.528391440425866
 Name=lactate Abbr=Lac Scale=1.0 Shift=0.0 PPM Start=-3.1207465171441986 PPM End=12.528391440425866
 Name=myo-inositol Abbr=mI Scale=1.0 Shift=0.0 PPM Start=-3.1207465171441986 PPM End=12.528391440425866
 Name=n-acetylaspartate Abbr=NAA Scale=1.0 Shift=0.0 PPM Start=-3.1207465171441986 PPM End=12.528391440425866
 Name=NAAG-truncated Abbr=NAAG Scale=1.0 Shift=0.0 PPM Start=-3.1207465171441986 PPM End=12.528391440425866
 Name=phosphocreatine Abbr=PCr Scale=1.0 Shift=0.0 PPM Start=-3.1207465171441986 PPM End=12.528391440425866
 Name=phosphorylcholine-trimethyl Abbr=PCho Scale=1.0 Shift=0.0 PPM Start=-3.1207465171441986 PPM End=12.528391440425866
 Name=phosphorylethanolamine Abbr=PE Scale=1.0 Shift=0.0 PPM Start=-3.1207465171441986 PPM End=12.528391440425866
 Name=pyruvate Abbr=Pyr Scale=1.0 Shift=0.0 PPM Start=-3.1207465171441986 PPM End=12.528391440425866
 Name=taurine Abbr=Tau Scale=1.0 Shift=0.0 PPM Start=-3.1207465171441986 PPM End=12.528391440425866
 Name=glutathione-glutamate+glutathione-glycine-cysteine Abbr=GSH Scale=1.0 Shift=0.0 PPM Start=-3.1207565171441987 PPM End=12.528
   Mixture of [metab*scale] = glutathione-glutamate*1.000000 + glutathione-glycine-cysteine*1.000000
 
 ===========================================================================
 This LCModel format RAW file was created using the 
 Vespa-Simulation spectral simulation program using 
 the following settings and parameters 
 
 Sweep Width = 2000.0 Hz 
 Vector Size = 2048 points 
 Apodization = 18.0 Hz Lorentzian broadening
 B0 Field    = 127.74 MHz 
 Ref Singlet = False
  
 This data has been FFTd to be in the FREQUENCY domain
 
 $NMID ID='Cr'
 FMTDAT='(2E16.6)'
 VOLUME=1.0
 TRAMP=1.0
 $END
    3.810843E+00    9.309759E+00
    3.823200E+00    9.397329E+00
    3.835912E+00    9.486219E+00
    3.848990E+00    9.576467E+00
    3.862449E+00    9.668109E+00
    3.876302E+00    9.761187E+00
    3.890566E+00    9.855742E+00
    3.905256E+00    9.951816E+00
    3.920389E+00    1.004945E+01
    3.935983E+00    1.014870E+01
    3.952057E+00    1.024961E+01
    3.968631E+00    1.035222E+01
    3.985724E+00    1.045659E+01
    4.003359E+00    1.056278E+01
    4.021559E+00    1.067083E+01
    4.040348E+00    1.078082E+01
    4.059753E+00    1.089280E+01
    4.079802E+00    1.100683E+01
    4.100523E+00    1.112298E+01
    4.121947E+00    1.124131E+01
    4.144108E+00    1.136191E+01
    4.167037E+00    1.148484E+01
    4.190771E+00    1.161019E+01
    4.215349E+00    1.173803E+01
    4.240810E+00    1.186845E+01
    4.267197E+00    1.200155E+01
    4.294558E+00    1.213741E+01
    4.322941E+00    1.227613E+01
    4.352398E+00    1.241783E+01
    4.382987E+00    1.256260E+01
    4.414767E+00    1.271057E+01
    4.447803E+00    1.286184E+01
    4.482162E+00    1.301655E+01
    4.517917E+00    1.317482E+01
    4.555143E+00    1.333679E+01
    4.593924E+00    1.350261E+01
    4.634348E+00    1.367243E+01
    4.676507E+00    1.384641E+01
    4.720504E+00    1.402473E+01
    4.766449E+00    1.420755E+01
    4.814458E+00    1.439507E+01
    4.864659E+00    1.458750E+01
    4.917191E+00    1.478504E+01
    4.972203E+00    1.498792E+01
    5.029854E+00    1.519637E+01
    5.090321E+00    1.541065E+01
    5.153791E+00    1.563102E+01
    5.220469E+00    1.585776E+01
    5.290578E+00    1.609118E+01
    5.364361E+00    1.633158E+01
    5.442079E+00    1.657930E+01
    5.524022E+00    1.683470E+01
    5.610502E+00    1.709817E+01
    5.701863E+00    1.737010E+01
    5.798480E+00    1.765093E+01
    5.900766E+00    1.794112E+01
    6.009177E+00    1.824117E+01
    6.124210E+00    1.855158E+01
    6.246420E+00    1.887294E+01
    6.376415E+00    1.920583E+01
    6.514871E+00    1.955089E+01
    6.662537E+00    1.990880E+01
    6.820247E+00    2.028031E+01
    6.988927E+00    2.066618E+01
    7.169616E+00    2.106726E+01
    7.363470E+00    2.148444E+01
    7.571791E+00    2.191866E+01
    7.796037E+00    2.237096E+01
    8.037854E+00    2.284240E+01
    8.299096E+00    2.333415E+01
    8.581867E+00    2.384743E+01
    8.888549E+00    2.438353E+01
    9.221856E+00    2.494382E+01
    9.584883E+00    2.552973E+01
    9.981169E+00    2.614273E+01
    1.041477E+01    2.678435E+01
    1.089035E+01    2.745611E+01
    1.141330E+01    2.815955E+01
    1.198982E+01    2.889612E+01
    1.262711E+01    2.966712E+01
    1.333354E+01    3.047363E+01
    1.411883E+01    3.131635E+01
    1.499429E+01    3.219539E+01
    1.597314E+01    3.311004E+01
    1.707078E+01    3.405834E+01
    1.830513E+01    3.503660E+01
    1.969702E+01    3.603869E+01
    2.127054E+01    3.705503E+01
    2.305330E+01    3.807134E+01
    2.507650E+01    3.906682E+01
    2.737475E+01    4.001184E+01
    2.998509E+01    4.086496E+01
    3.294501E+01    4.156919E+01
    3.628870E+01    4.204769E+01
    4.004058E+01    4.219933E+01
    4.420510E+01    4.189516E+01
    4.875196E+01    4.097812E+01
    5.359670E+01    3.926935E+01
    5.857931E+01    3.658616E+01
    6.344764E+01    3.277584E+01
    6.785763E+01    2.776579E+01
    7.140493E+01    2.162003E+01
    7.369484E+01    1.457905E+01
    7.443807E+01    7.054037E+00
    7.353570E+01   -4.400779E-01
    7.111079E+01   -7.394938E+00
    6.746923E+01   -1.341622E+01
    6.301133E+01   -1.828391E+01
    5.813753E+01   -2.195180E+01
    5.318251E+01   -2.450428E+01
    4.838772E+01   -2.609959E+01
    4.390375E+01   -2.692138E+01
    3.980797E+01   -2.714665E+01
    3.612593E+01   -2.692948E+01
    3.285032E+01   -2.639558E+01
    2.995524E+01   -2.564315E+01
    2.740588E+01   -2.474655E+01
    2.516467E+01   -2.376082E+01
    2.319480E+01   -2.272586E+01
    2.146205E+01   -2.167015E+01
    1.993561E+01   -2.061363E+01
    1.858832E+01   -1.956993E+01
    1.739650E+01   -1.854816E+01
    1.633970E+01   -1.755408E+01
    1.540029E+01   -1.659112E+01
    1.456320E+01   -1.566101E+01
    1.381546E+01   -1.476432E+01
    1.314597E+01   -1.390080E+01
    1.254522E+01   -1.306964E+01
    1.200502E+01   -1.226969E+01
    1.151833E+01   -1.149952E+01
    1.107907E+01   -1.075763E+01
    1.068198E+01   -1.004241E+01
    1.032252E+01   -9.352246E+00
    9.996747E+00   -8.685541E+00
    9.701211E+00   -8.040733E+00
    9.432917E+00   -7.416312E+00
    9.189247E+00   -6.810825E+00
    8.967905E+00   -6.222884E+00
    8.766880E+00   -5.651168E+00
    8.584403E+00   -5.094418E+00
    8.418919E+00   -4.551438E+00
    8.269057E+00   -4.021094E+00
    8.133611E+00   -3.502307E+00
    8.011516E+00   -2.994051E+00
    7.901834E+00   -2.495351E+00
    7.803740E+00   -2.005277E+00
    7.716505E+00   -1.522940E+00
    7.639494E+00   -1.047489E+00
    7.572147E+00   -5.781079E-01
    7.513978E+00   -1.140098E-01
    7.464568E+00    3.455644E-01
    7.423557E+00    8.013505E-01
    7.390638E+00    1.254063E+00
    7.365558E+00    1.704401E+00
    7.348111E+00    2.153048E+00
    7.338136E+00    2.600675E+00
    7.335514E+00    3.047948E+00
    7.340169E+00    3.495524E+00
    7.352066E+00    3.944059E+00
    7.371205E+00    4.394209E+00
    7.397631E+00    4.846632E+00
    7.431425E+00    5.301991E+00
    7.472709E+00    5.760959E+00
    7.521645E+00    6.224219E+00
    7.578439E+00    6.692467E+00
    7.643342E+00    7.166418E+00
    7.716651E+00    7.646805E+00
    7.798713E+00    8.134386E+00
    7.889929E+00    8.629945E+00
    7.990759E+00    9.134296E+00
    8.101726E+00    9.648287E+00
    8.223421E+00    1.017280E+01
