 Vespa-Simulation Mixed Metabolite Output
 This file was generated by Vespa-Simulation. You can learn about and download Vespa here:
https://github.com/vespa-mrs/vespa/tree/main/vespa

 
 Output Path/Filename = /home/stud/casperc/bhome/Project1(DeepFit)/DeepFit-data-generation/DeepFitData_TE_20_lw18_2048p
 Output Loop Values = (1,1,1)  ( Loop 1 = 10, Loop 2 = 10, Loop3 Inactive )
 Output Comment
 ---------------------------------------------------------------------------
 
 
 Experiment Information
 ---------------------------------------------------------------------------
 --- Experiment 18b0168e-f5f0-4bd4-8d52-da93aba06c60 ---
 Name: SyntheticDataSetDeepFitTE20
 Public: False
 Created: 2024-10-08T09:55:07
 Comment (abbr.): 
 PI: Casper Cappelen
 b0: 127.740000
 Peak Search PPM low/high: -15.000000 / 15.000000
 Blend tol. PPM/phase: 0.001500 / 50.000000
 Pulse seq.: 43be13ae-de9a-40a1-9a2d-c872d8bjs100 (PRESS Ideal)
 0 User static parameters: 
 22 Metabolites: 2-hydroxyglutarate, alanine, choline-trimethyl, creatine, ethanolamine, gaba, glucose-beta, glutamate, glutamine, glutathione-glutamate, glutathione-glycine-cysteine, glycine, GPC-pcholine2, lactate, myo-inositol, n-acetylaspartate, NAAG-truncated, phosphocreatine, phosphorylcholine-trimethyl, phosphorylethanolamine, pyruvate, taurine
 22 Simulations: (not shown)
 
 Metabolite Formatting Information
 ---------------------------------------------------------------------------
 Name=2-hydroxyglutarate Abbr=2HG Scale=1.0 Shift=0.0 PPM Start=-3.1207465171441986 PPM End=12.528391440425866
 Name=alanine Abbr=Ala Scale=1.0 Shift=0.0 PPM Start=-3.1207465171441986 PPM End=12.528391440425866
 Name=choline-trimethyl Abbr=Cho Scale=1.0 Shift=0.0 PPM Start=-3.1207465171441986 PPM End=12.528391440425866
 Name=creatine Abbr=Cr Scale=1.0 Shift=0.0 PPM Start=-3.1207465171441986 PPM End=12.528391440425866
 Name=ethanolamine Abbr=ETA Scale=1.0 Shift=0.0 PPM Start=-3.1207465171441986 PPM End=12.528391440425866
 Name=gaba Abbr=GABA Scale=1.0 Shift=0.0 PPM Start=-3.1207465171441986 PPM End=12.528391440425866
 Name=glucose-beta Abbr=Glc Scale=1.0 Shift=0.0 PPM Start=-3.1207465171441986 PPM End=12.528391440425866
 Name=glutamate Abbr=Glu Scale=1.0 Shift=0.0 PPM Start=-3.1207465171441986 PPM End=12.528391440425866
 Name=glutamine Abbr=Gln Scale=1.0 Shift=0.0 PPM Start=-3.1207465171441986 PPM End=12.528391440425866
 Name=glycine Abbr=Gly Scale=1.0 Shift=0.0 PPM Start=-3.1207465171441986 PPM End=12.528391440425866
 Name=GPC-pcholine2 Abbr=GPC Scale=1.0 Shift=0.0 PPM Start=-3.1207465171441986 PPM End=12.528391440425866
 Name=lactate Abbr=Lac Scale=1.0 Shift=0.0 PPM Start=-3.1207465171441986 PPM End=12.528391440425866
 Name=myo-inositol Abbr=mI Scale=1.0 Shift=0.0 PPM Start=-3.1207465171441986 PPM End=12.528391440425866
 Name=n-acetylaspartate Abbr=NAA Scale=1.0 Shift=0.0 PPM Start=-3.1207465171441986 PPM End=12.528391440425866
 Name=NAAG-truncated Abbr=NAAG Scale=1.0 Shift=0.0 PPM Start=-3.1207465171441986 PPM End=12.528391440425866
 Name=phosphocreatine Abbr=PCr Scale=1.0 Shift=0.0 PPM Start=-3.1207465171441986 PPM End=12.528391440425866
 Name=phosphorylcholine-trimethyl Abbr=PCho Scale=1.0 Shift=0.0 PPM Start=-3.1207465171441986 PPM End=12.528391440425866
 Name=phosphorylethanolamine Abbr=PE Scale=1.0 Shift=0.0 PPM Start=-3.1207465171441986 PPM End=12.528391440425866
 Name=pyruvate Abbr=Pyr Scale=1.0 Shift=0.0 PPM Start=-3.1207465171441986 PPM End=12.528391440425866
 Name=taurine Abbr=Tau Scale=1.0 Shift=0.0 PPM Start=-3.1207465171441986 PPM End=12.528391440425866
 Name=glutathione-glutamate+glutathione-glycine-cysteine Abbr=GSH Scale=1.0 Shift=0.0 PPM Start=-3.1207565171441987 PPM End=12.528
   Mixture of [metab*scale] = glutathione-glutamate*1.000000 + glutathione-glycine-cysteine*1.000000
 
 ===========================================================================
 This LCModel format RAW file was created using the 
 Vespa-Simulation spectral simulation program using 
 the following settings and parameters 
 
 Sweep Width = 2000.0 Hz 
 Vector Size = 2048 points 
 Apodization = 18.0 Hz Lorentzian broadening
 B0 Field    = 127.74 MHz 
 Ref Singlet = False
  
 $NMID ID='ETA'
 FMTDAT='(2E16.6)'
 VOLUME=1.0
 TRAMP=1.0
 $END
    3.667983E+00   -8.125016E-05
    3.124875E+00    1.661007E+00
    1.875141E+00    2.778597E+00
    3.266553E-01    3.097737E+00
   -1.060841E+00    2.629035E+00
   -1.929893E+00    1.621166E+00
   -2.131568E+00    4.545011E-01
   -1.750140E+00   -5.004769E-01
   -1.044476E+00   -1.007046E+00
   -3.342631E-01   -1.025865E+00
    1.230390E-01   -7.009946E-01
    2.189541E-01   -2.804952E-01
    1.595423E-02   -6.766504E-03
   -2.978705E-01   -2.001997E-02
   -4.987533E-01   -3.100866E-01
   -4.242404E-01   -7.310775E-01
   -3.971046E-02   -1.068882E+00
    5.490601E-01   -1.132307E+00
    1.139116E+00   -8.317494E-01
    1.510039E+00   -2.160044E-01
    1.508319E+00    5.446410E-01
    1.104750E+00    1.220465E+00
    4.047104E-01    1.604549E+00
   -3.902667E-01    1.584280E+00
   -1.053417E+00    1.176799E+00
   -1.409105E+00    5.176512E-01
   -1.387259E+00   -1.906232E-01
   -1.038159E+00   -7.492902E-01
   -5.051970E-01   -1.027432E+00
    3.157126E-02   -9.973193E-01
    4.189460E-01   -7.311721E-01
    5.781188E-01   -3.638826E-01
    5.210649E-01   -3.809974E-02
    3.328879E-01    1.470416E-01
    1.298897E-01    1.654999E-01
    1.105552E-02    6.349116E-02
    2.145283E-02   -6.836755E-02
    1.401154E-01   -1.370893E-01
    2.947518E-01   -8.639425E-02
    3.955349E-01    8.175132E-02
    3.736211E-01    3.099959E-01
    2.094027E-01    5.101888E-01
   -5.960863E-02    5.988930E-01
   -3.531693E-01    5.298952E-01
   -5.782510E-01    3.116076E-01
   -6.628126E-01    3.715201E-03
   -5.806534E-01   -3.045421E-01
   -3.589769E-01   -5.257211E-01
   -6.689098E-02   -6.032085E-01
    2.097627E-01   -5.279017E-01
    3.975732E-01   -3.375212E-01
    4.580426E-01   -1.001174E-01
    3.962843E-01    1.111879E-01
    2.540151E-01    2.425468E-01
    9.087030E-02    2.745371E-01
   -3.822452E-02    2.236096E-01
   -1.012591E-01    1.308729E-01
   -9.683800E-02    4.353473E-02
   -4.983025E-02   -3.484434E-03
    2.179793E-03    9.342573E-04
    2.561201E-02    4.296467E-02
    4.228635E-03    9.242373E-02
   -5.560844E-02    1.169045E-01
   -1.290293E-01    9.558911E-02
   -1.837338E-01    2.751214E-02
   -1.933319E-01   -6.843316E-02
   -1.477094E-01   -1.611905E-01
   -5.673955E-02   -2.194534E-01
    5.361224E-02   -2.231858E-01
    1.508671E-01   -1.704712E-01
    2.074615E-01   -7.751795E-02
    2.097231E-01    2.766636E-02
    1.614891E-01    1.152621E-01
    8.142721E-02    1.634739E-01
   -4.394312E-03    1.647350E-01
   -7.170511E-02    1.265512E-01
   -1.056075E-01    6.715949E-02
   -1.040895E-01    8.076997E-03
   -7.668230E-02   -3.348259E-02
   -3.935159E-02   -4.970056E-02
   -7.854732E-03   -4.322980E-02
    7.866829E-03   -2.439151E-02
    6.354198E-03   -5.991765E-03
   -6.218652E-03    2.040897E-03
   -1.967795E-02   -3.800014E-03
   -2.456308E-02   -1.998149E-02
   -1.602215E-02   -3.813308E-02
    4.498298E-03   -4.892857E-02
    3.019354E-02   -4.599859E-02
    5.184378E-02   -2.838307E-02
    6.148684E-02   -7.350532E-04
    5.536538E-02    2.860702E-02
    3.511991E-02    5.078599E-02
    6.948131E-03    5.954135E-02
   -2.078831E-02    5.317916E-02
   -4.051335E-02    3.477344E-02
   -4.782194E-02    1.071641E-02
   -4.255120E-02   -1.170451E-02
   -2.829218E-02   -2.674613E-02
   -1.070485E-02   -3.182072E-02
    4.618097E-03   -2.781584E-02
    1.394598E-02   -1.820529E-02
    1.628136E-02   -7.422948E-03
    1.314575E-02    8.160122E-04
    7.523324E-03    4.639568E-03
    2.482394E-03    4.284984E-03
    2.247463E-05    1.547645E-03
    5.365811E-04   -1.246204E-03
    2.982575E-03   -2.278340E-03
    5.582502E-03   -8.957739E-04
    6.695015E-03    2.304668E-03
    5.494736E-03    5.904127E-03
    2.224504E-03    8.357805E-03
   -2.015143E-03    8.645481E-03
   -5.790402E-03    6.628500E-03
   -7.919607E-03    3.015921E-03
   -7.887592E-03   -9.907614E-04
   -5.950817E-03   -4.192238E-03
   -2.940310E-03   -5.811766E-03
    1.152242E-04   -5.696552E-03
    2.373829E-03   -4.257106E-03
    3.425532E-03   -2.214202E-03
    3.329547E-03   -2.863320E-04
    2.473177E-03    1.051133E-03
    1.344217E-03    1.656168E-03
    3.281808E-04    1.658638E-03
   -3.913068E-04    1.309242E-03
   -8.127753E-04    8.283898E-04
   -1.018036E-03    3.248417E-04
   -1.064885E-03   -1.922427E-04
   -9.335455E-04   -7.362396E-04
   -5.513144E-04   -1.258854E-03
    1.260386E-04   -1.616470E-03
    1.029279E-03   -1.611547E-03
    1.942483E-03   -1.091739E-03
    2.550648E-03   -5.580040E-05
    2.555658E-03    1.292074E-03
    1.811801E-03    2.576162E-03
    4.171893E-04    3.368511E-03
   -1.284716E-03    3.347807E-03
   -2.805389E-03    2.434695E-03
   -3.678000E-03    8.424727E-04
   -3.626860E-03   -9.821593E-04
   -2.671581E-03   -2.509678E-03
   -1.123149E-03   -3.312835E-03
    5.292225E-04   -3.215090E-03
    1.794478E-03   -2.343685E-03
    2.353917E-03   -1.069761E-03
    2.164062E-03    1.409744E-04
    1.451286E-03    9.062828E-04
    6.036586E-04    1.064412E-03
    5.912255E-06    7.181683E-04
   -1.157798E-04    1.721610E-04
    2.225381E-04   -2.079865E-04
    7.804285E-04   -1.557021E-04
    1.203030E-03    3.817164E-04
    1.176462E-03    1.218569E-03
    5.656228E-04    2.004573E-03
   -5.202848E-04    2.366196E-03
   -1.759477E-03    2.059015E-03
   -2.733991E-03    1.071050E-03
   -3.083399E-03   -3.613610E-04
   -2.639477E-03   -1.831210E-03
   -1.490005E-03   -2.900964E-03
    4.953189E-05   -3.252612E-03
    1.543698E-03   -2.792963E-03
    2.582901E-03   -1.678328E-03
    2.914663E-03   -2.526747E-04
    2.513731E-03    1.072736E-03
    1.572798E-03    1.954934E-03
    4.210344E-04    2.220742E-03
   -5.948607E-04    1.902636E-03
   -1.222957E-03    1.202564E-03
   -1.373737E-03    4.034374E-04
