 Vespa-Simulation Mixed Metabolite Output
 This file was generated by Vespa-Simulation. You can learn about and download Vespa here:
https://github.com/vespa-mrs/vespa/tree/main/vespa

 
 Output Path/Filename = /home/stud/casperc/bhome/Project1(DeepFit)/DeepFit-data-generation/DeepFitData_TE_20_lw18_2048p
 Output Loop Values = (1,1,1)  ( Loop 1 = 10, Loop 2 = 10, Loop3 Inactive )
 Output Comment
 ---------------------------------------------------------------------------
 
 
 Experiment Information
 ---------------------------------------------------------------------------
 --- Experiment 18b0168e-f5f0-4bd4-8d52-da93aba06c60 ---
 Name: SyntheticDataSetDeepFitTE20
 Public: False
 Created: 2024-10-08T09:55:07
 Comment (abbr.): 
 PI: Casper Cappelen
 b0: 127.740000
 Peak Search PPM low/high: -15.000000 / 15.000000
 Blend tol. PPM/phase: 0.001500 / 50.000000
 Pulse seq.: 43be13ae-de9a-40a1-9a2d-c872d8bjs100 (PRESS Ideal)
 0 User static parameters: 
 22 Metabolites: 2-hydroxyglutarate, alanine, choline-trimethyl, creatine, ethanolamine, gaba, glucose-beta, glutamate, glutamine, glutathione-glutamate, glutathione-glycine-cysteine, glycine, GPC-pcholine2, lactate, myo-inositol, n-acetylaspartate, NAAG-truncated, phosphocreatine, phosphorylcholine-trimethyl, phosphorylethanolamine, pyruvate, taurine
 22 Simulations: (not shown)
 
 Metabolite Formatting Information
 ---------------------------------------------------------------------------
 Name=2-hydroxyglutarate Abbr=2HG Scale=1.0 Shift=0.0 PPM Start=-3.1207465171441986 PPM End=12.528391440425866
 Name=alanine Abbr=Ala Scale=1.0 Shift=0.0 PPM Start=-3.1207465171441986 PPM End=12.528391440425866
 Name=choline-trimethyl Abbr=Cho Scale=1.0 Shift=0.0 PPM Start=-3.1207465171441986 PPM End=12.528391440425866
 Name=creatine Abbr=Cr Scale=1.0 Shift=0.0 PPM Start=-3.1207465171441986 PPM End=12.528391440425866
 Name=ethanolamine Abbr=ETA Scale=1.0 Shift=0.0 PPM Start=-3.1207465171441986 PPM End=12.528391440425866
 Name=gaba Abbr=GABA Scale=1.0 Shift=0.0 PPM Start=-3.1207465171441986 PPM End=12.528391440425866
 Name=glucose-beta Abbr=Glc Scale=1.0 Shift=0.0 PPM Start=-3.1207465171441986 PPM End=12.528391440425866
 Name=glutamate Abbr=Glu Scale=1.0 Shift=0.0 PPM Start=-3.1207465171441986 PPM End=12.528391440425866
 Name=glutamine Abbr=Gln Scale=1.0 Shift=0.0 PPM Start=-3.1207465171441986 PPM End=12.528391440425866
 Name=glycine Abbr=Gly Scale=1.0 Shift=0.0 PPM Start=-3.1207465171441986 PPM End=12.528391440425866
 Name=GPC-pcholine2 Abbr=GPC Scale=1.0 Shift=0.0 PPM Start=-3.1207465171441986 PPM End=12.528391440425866
 Name=lactate Abbr=Lac Scale=1.0 Shift=0.0 PPM Start=-3.1207465171441986 PPM End=12.528391440425866
 Name=myo-inositol Abbr=mI Scale=1.0 Shift=0.0 PPM Start=-3.1207465171441986 PPM End=12.528391440425866
 Name=n-acetylaspartate Abbr=NAA Scale=1.0 Shift=0.0 PPM Start=-3.1207465171441986 PPM End=12.528391440425866
 Name=NAAG-truncated Abbr=NAAG Scale=1.0 Shift=0.0 PPM Start=-3.1207465171441986 PPM End=12.528391440425866
 Name=phosphocreatine Abbr=PCr Scale=1.0 Shift=0.0 PPM Start=-3.1207465171441986 PPM End=12.528391440425866
 Name=phosphorylcholine-trimethyl Abbr=PCho Scale=1.0 Shift=0.0 PPM Start=-3.1207465171441986 PPM End=12.528391440425866
 Name=phosphorylethanolamine Abbr=PE Scale=1.0 Shift=0.0 PPM Start=-3.1207465171441986 PPM End=12.528391440425866
 Name=pyruvate Abbr=Pyr Scale=1.0 Shift=0.0 PPM Start=-3.1207465171441986 PPM End=12.528391440425866
 Name=taurine Abbr=Tau Scale=1.0 Shift=0.0 PPM Start=-3.1207465171441986 PPM End=12.528391440425866
 Name=glutathione-glutamate+glutathione-glycine-cysteine Abbr=GSH Scale=1.0 Shift=0.0 PPM Start=-3.1207565171441987 PPM End=12.528
   Mixture of [metab*scale] = glutathione-glutamate*1.000000 + glutathione-glycine-cysteine*1.000000
 
 ===========================================================================
 This LCModel format RAW file was created using the 
 Vespa-Simulation spectral simulation program using 
 the following settings and parameters 
 
 Sweep Width = 2000.0 Hz 
 Vector Size = 2048 points 
 Apodization = 18.0 Hz Lorentzian broadening
 B0 Field    = 127.74 MHz 
 Ref Singlet = False
  
 This data has been FFTd to be in the FREQUENCY domain
 
 $NMID ID='ETA'
 FMTDAT='(2E16.6)'
 VOLUME=1.0
 TRAMP=1.0
 $END
    2.375605E+00    7.940812E+00
    2.384147E+00    8.000760E+00
    2.392905E+00    8.061621E+00
    2.401886E+00    8.123418E+00
    2.411098E+00    8.186173E+00
    2.420549E+00    8.249909E+00
    2.430247E+00    8.314652E+00
    2.440202E+00    8.380426E+00
    2.450423E+00    8.447258E+00
    2.460920E+00    8.515175E+00
    2.471703E+00    8.584203E+00
    2.482783E+00    8.654374E+00
    2.494171E+00    8.725715E+00
    2.505878E+00    8.798258E+00
    2.517918E+00    8.872036E+00
    2.530303E+00    8.947081E+00
    2.543046E+00    9.023429E+00
    2.556162E+00    9.101114E+00
    2.569666E+00    9.180174E+00
    2.583573E+00    9.260648E+00
    2.597900E+00    9.342576E+00
    2.612664E+00    9.425999E+00
    2.627883E+00    9.510961E+00
    2.643577E+00    9.597507E+00
    2.659766E+00    9.685683E+00
    2.676472E+00    9.775539E+00
    2.693717E+00    9.867125E+00
    2.711525E+00    9.960494E+00
    2.729921E+00    1.005570E+01
    2.748933E+00    1.015280E+01
    2.768588E+00    1.025186E+01
    2.788917E+00    1.035294E+01
    2.809951E+00    1.045609E+01
    2.831724E+00    1.056140E+01
    2.854272E+00    1.066893E+01
    2.877632E+00    1.077875E+01
    2.901846E+00    1.089094E+01
    2.926955E+00    1.100559E+01
    2.953006E+00    1.112277E+01
    2.980046E+00    1.124258E+01
    3.008127E+00    1.136510E+01
    3.037304E+00    1.149044E+01
    3.067636E+00    1.161870E+01
    3.099185E+00    1.174998E+01
    3.132018E+00    1.188439E+01
    3.166208E+00    1.202205E+01
    3.201830E+00    1.216309E+01
    3.238966E+00    1.230763E+01
    3.277705E+00    1.245582E+01
    3.318141E+00    1.260778E+01
    3.360376E+00    1.276368E+01
    3.404520E+00    1.292367E+01
    3.450690E+00    1.308793E+01
    3.499013E+00    1.325661E+01
    3.549627E+00    1.342992E+01
    3.602679E+00    1.360805E+01
    3.658331E+00    1.379120E+01
    3.716756E+00    1.397960E+01
    3.778142E+00    1.417347E+01
    3.842694E+00    1.437306E+01
    3.910635E+00    1.457863E+01
    3.982206E+00    1.479045E+01
    4.057672E+00    1.500880E+01
    4.137322E+00    1.523401E+01
    4.221470E+00    1.546639E+01
    4.310462E+00    1.570628E+01
    4.404676E+00    1.595405E+01
    4.504529E+00    1.621010E+01
    4.610477E+00    1.647482E+01
    4.723026E+00    1.674865E+01
    4.842732E+00    1.703205E+01
    4.970209E+00    1.732552E+01
    5.106140E+00    1.762956E+01
    5.251282E+00    1.794473E+01
    5.406476E+00    1.827159E+01
    5.572660E+00    1.861076E+01
    5.750879E+00    1.896288E+01
    5.942303E+00    1.932862E+01
    6.148246E+00    1.970868E+01
    6.370178E+00    2.010380E+01
    6.609758E+00    2.051471E+01
    6.868855E+00    2.094221E+01
    7.149581E+00    2.138707E+01
    7.454327E+00    2.185008E+01
    7.785806E+00    2.233201E+01
    8.147101E+00    2.283357E+01
    8.541722E+00    2.335541E+01
    8.973670E+00    2.389808E+01
    9.447511E+00    2.446193E+01
    9.968461E+00    2.504707E+01
    1.054248E+01    2.565325E+01
    1.117636E+01    2.627970E+01
    1.187785E+01    2.692500E+01
    1.265574E+01    2.758677E+01
    1.351998E+01    2.826139E+01
    1.448168E+01    2.894356E+01
    1.555314E+01    2.962575E+01
    1.674768E+01    3.029759E+01
    1.807933E+01    3.094496E+01
    1.956217E+01    3.154913E+01
    2.120923E+01    3.208571E+01
    2.303076E+01    3.252378E+01
    2.503181E+01    3.282545E+01
    2.720898E+01    3.294626E+01
    2.954677E+01    3.283723E+01
    3.201436E+01    3.244903E+01
    3.456438E+01    3.173834E+01
    3.713526E+01    3.067526E+01
    3.965827E+01    2.924885E+01
    4.206705E+01    2.746729E+01
    4.430485E+01    2.535141E+01
    4.632419E+01    2.292546E+01
    4.807892E+01    2.021280E+01
    4.951619E+01    1.724192E+01
    5.057817E+01    1.405890E+01
    5.121592E+01    1.073477E+01
    5.140662E+01    7.358650E+00
    5.116052E+01    4.018759E+00
    5.051133E+01    7.842376E-01
    4.949714E+01   -2.299253E+00
    4.814633E+01   -5.198198E+00
    4.647875E+01   -7.874687E+00
    4.451954E+01   -1.027865E+01
    4.231360E+01   -1.235480E+01
    3.992948E+01   -1.405840E+01
    3.745091E+01   -1.536893E+01
    3.496245E+01   -1.629453E+01
    3.253689E+01   -1.686745E+01
    3.022844E+01   -1.713479E+01
    2.807177E+01   -1.714930E+01
    2.608470E+01   -1.696240E+01
    2.427227E+01   -1.662014E+01
    2.263089E+01   -1.616151E+01
    2.115172E+01   -1.561824E+01
    1.982320E+01   -1.501549E+01
    1.863265E+01   -1.437285E+01
    1.756738E+01   -1.370542E+01
    1.661517E+01   -1.302476E+01
    1.576453E+01   -1.233968E+01
    1.500474E+01   -1.165676E+01
    1.432594E+01   -1.098071E+01
    1.371917E+01   -1.031474E+01
    1.317642E+01   -9.660793E+00
    1.269068E+01   -9.019844E+00
    1.225586E+01   -8.392190E+00
    1.186677E+01   -7.777658E+00
    1.151897E+01   -7.175776E+00
    1.120868E+01   -6.585887E+00
    1.093266E+01   -6.007220E+00
    1.068813E+01   -5.438935E+00
    1.047273E+01   -4.880151E+00
    1.028441E+01   -4.329961E+00
    1.012145E+01   -3.787445E+00
    9.982385E+00   -3.251673E+00
    9.865976E+00   -2.721711E+00
    9.771215E+00   -2.196628E+00
    9.697287E+00   -1.675490E+00
    9.643565E+00   -1.157366E+00
    9.609596E+00   -6.413262E-01
    9.595094E+00   -1.264444E-01
    9.599938E+00    3.882067E-01
    9.624169E+00    9.035535E-01
    9.667989E+00    1.420523E+00
    9.731764E+00    1.940044E+00
    9.816036E+00    2.463047E+00
    9.921521E+00    2.990463E+00
    1.004913E+01    3.523225E+00
    1.019999E+01    4.062268E+00
    1.037543E+01    4.608523E+00
    1.057705E+01    5.162915E+00
    1.080673E+01    5.726361E+00
    1.106667E+01    6.299757E+00
