 Vespa-Simulation Mixed Metabolite Output
 This file was generated by Vespa-Simulation. You can learn about and download Vespa here:
https://github.com/vespa-mrs/vespa/tree/main/vespa

 
 Output Path/Filename = /home/stud/casperc/bhome/Project1(DeepFit)/DeepFit-data-generation/DeepFitData_TE_20_lw18_2048p
 Output Loop Values = (1,1,1)  ( Loop 1 = 10, Loop 2 = 10, Loop3 Inactive )
 Output Comment
 ---------------------------------------------------------------------------
 
 
 Experiment Information
 ---------------------------------------------------------------------------
 --- Experiment 18b0168e-f5f0-4bd4-8d52-da93aba06c60 ---
 Name: SyntheticDataSetDeepFitTE20
 Public: False
 Created: 2024-10-08T09:55:07
 Comment (abbr.): 
 PI: Casper Cappelen
 b0: 127.740000
 Peak Search PPM low/high: -15.000000 / 15.000000
 Blend tol. PPM/phase: 0.001500 / 50.000000
 Pulse seq.: 43be13ae-de9a-40a1-9a2d-c872d8bjs100 (PRESS Ideal)
 0 User static parameters: 
 22 Metabolites: 2-hydroxyglutarate, alanine, choline-trimethyl, creatine, ethanolamine, gaba, glucose-beta, glutamate, glutamine, glutathione-glutamate, glutathione-glycine-cysteine, glycine, GPC-pcholine2, lactate, myo-inositol, n-acetylaspartate, NAAG-truncated, phosphocreatine, phosphorylcholine-trimethyl, phosphorylethanolamine, pyruvate, taurine
 22 Simulations: (not shown)
 
 Metabolite Formatting Information
 ---------------------------------------------------------------------------
 Name=2-hydroxyglutarate Abbr=2HG Scale=1.0 Shift=0.0 PPM Start=-3.1207465171441986 PPM End=12.528391440425866
 Name=alanine Abbr=Ala Scale=1.0 Shift=0.0 PPM Start=-3.1207465171441986 PPM End=12.528391440425866
 Name=choline-trimethyl Abbr=Cho Scale=1.0 Shift=0.0 PPM Start=-3.1207465171441986 PPM End=12.528391440425866
 Name=creatine Abbr=Cr Scale=1.0 Shift=0.0 PPM Start=-3.1207465171441986 PPM End=12.528391440425866
 Name=ethanolamine Abbr=ETA Scale=1.0 Shift=0.0 PPM Start=-3.1207465171441986 PPM End=12.528391440425866
 Name=gaba Abbr=GABA Scale=1.0 Shift=0.0 PPM Start=-3.1207465171441986 PPM End=12.528391440425866
 Name=glucose-beta Abbr=Glc Scale=1.0 Shift=0.0 PPM Start=-3.1207465171441986 PPM End=12.528391440425866
 Name=glutamate Abbr=Glu Scale=1.0 Shift=0.0 PPM Start=-3.1207465171441986 PPM End=12.528391440425866
 Name=glutamine Abbr=Gln Scale=1.0 Shift=0.0 PPM Start=-3.1207465171441986 PPM End=12.528391440425866
 Name=glycine Abbr=Gly Scale=1.0 Shift=0.0 PPM Start=-3.1207465171441986 PPM End=12.528391440425866
 Name=GPC-pcholine2 Abbr=GPC Scale=1.0 Shift=0.0 PPM Start=-3.1207465171441986 PPM End=12.528391440425866
 Name=lactate Abbr=Lac Scale=1.0 Shift=0.0 PPM Start=-3.1207465171441986 PPM End=12.528391440425866
 Name=myo-inositol Abbr=mI Scale=1.0 Shift=0.0 PPM Start=-3.1207465171441986 PPM End=12.528391440425866
 Name=n-acetylaspartate Abbr=NAA Scale=1.0 Shift=0.0 PPM Start=-3.1207465171441986 PPM End=12.528391440425866
 Name=NAAG-truncated Abbr=NAAG Scale=1.0 Shift=0.0 PPM Start=-3.1207465171441986 PPM End=12.528391440425866
 Name=phosphocreatine Abbr=PCr Scale=1.0 Shift=0.0 PPM Start=-3.1207465171441986 PPM End=12.528391440425866
 Name=phosphorylcholine-trimethyl Abbr=PCho Scale=1.0 Shift=0.0 PPM Start=-3.1207465171441986 PPM End=12.528391440425866
 Name=phosphorylethanolamine Abbr=PE Scale=1.0 Shift=0.0 PPM Start=-3.1207465171441986 PPM End=12.528391440425866
 Name=pyruvate Abbr=Pyr Scale=1.0 Shift=0.0 PPM Start=-3.1207465171441986 PPM End=12.528391440425866
 Name=taurine Abbr=Tau Scale=1.0 Shift=0.0 PPM Start=-3.1207465171441986 PPM End=12.528391440425866
 Name=glutathione-glutamate+glutathione-glycine-cysteine Abbr=GSH Scale=1.0 Shift=0.0 PPM Start=-3.1207565171441987 PPM End=12.528
   Mixture of [metab*scale] = glutathione-glutamate*1.000000 + glutathione-glycine-cysteine*1.000000
 
 ===========================================================================
 This LCModel format RAW file was created using the 
 Vespa-Simulation spectral simulation program using 
 the following settings and parameters 
 
 Sweep Width = 2000.0 Hz 
 Vector Size = 2048 points 
 Apodization = 18.0 Hz Lorentzian broadening
 B0 Field    = 127.74 MHz 
 Ref Singlet = False
  
 This data has been FFTd to be in the FREQUENCY domain
 
 $NMID ID='GABA'
 FMTDAT='(2E16.6)'
 VOLUME=1.0
 TRAMP=1.0
 $END
    2.461232E+00    4.914934E+00
    2.462370E+00    4.935059E+00
    2.463525E+00    4.955327E+00
    2.464696E+00    4.975738E+00
    2.465883E+00    4.996293E+00
    2.467088E+00    5.016996E+00
    2.468309E+00    5.037847E+00
    2.469548E+00    5.058849E+00
    2.470805E+00    5.080003E+00
    2.472079E+00    5.101312E+00
    2.473372E+00    5.122776E+00
    2.474684E+00    5.144399E+00
    2.476015E+00    5.166181E+00
    2.477366E+00    5.188125E+00
    2.478736E+00    5.210233E+00
    2.480127E+00    5.232507E+00
    2.481538E+00    5.254950E+00
    2.482970E+00    5.277562E+00
    2.484424E+00    5.300348E+00
    2.485900E+00    5.323307E+00
    2.487399E+00    5.346444E+00
    2.488920E+00    5.369759E+00
    2.490464E+00    5.393255E+00
    2.492031E+00    5.416935E+00
    2.493623E+00    5.440802E+00
    2.495239E+00    5.464858E+00
    2.496881E+00    5.489105E+00
    2.498549E+00    5.513545E+00
    2.500244E+00    5.538181E+00
    2.501966E+00    5.563015E+00
    2.503714E+00    5.588050E+00
    2.505489E+00    5.613288E+00
    2.507291E+00    5.638734E+00
    2.509121E+00    5.664390E+00
    2.510981E+00    5.690260E+00
    2.512871E+00    5.716348E+00
    2.514794E+00    5.742654E+00
    2.516749E+00    5.769183E+00
    2.518738E+00    5.795935E+00
    2.520760E+00    5.822914E+00
    2.522816E+00    5.850123E+00
    2.524905E+00    5.877566E+00
    2.527029E+00    5.905246E+00
    2.529187E+00    5.933167E+00
    2.531381E+00    5.961333E+00
    2.533612E+00    5.989750E+00
    2.535881E+00    6.018419E+00
    2.538192E+00    6.047345E+00
    2.540543E+00    6.076530E+00
    2.542937E+00    6.105978E+00
    2.545373E+00    6.135691E+00
    2.547851E+00    6.165676E+00
    2.550374E+00    6.195934E+00
    2.552940E+00    6.226472E+00
    2.555552E+00    6.257294E+00
    2.558210E+00    6.288405E+00
    2.560917E+00    6.319808E+00
    2.563674E+00    6.351509E+00
    2.566481E+00    6.383511E+00
    2.569339E+00    6.415820E+00
    2.572251E+00    6.448440E+00
    2.575217E+00    6.481377E+00
    2.578238E+00    6.514636E+00
    2.581317E+00    6.548221E+00
    2.584455E+00    6.582139E+00
    2.587653E+00    6.616394E+00
    2.590912E+00    6.650992E+00
    2.594234E+00    6.685938E+00
    2.597621E+00    6.721238E+00
    2.601074E+00    6.756899E+00
    2.604595E+00    6.792927E+00
    2.608186E+00    6.829327E+00
    2.611849E+00    6.866107E+00
    2.615586E+00    6.903272E+00
    2.619398E+00    6.940829E+00
    2.623287E+00    6.978784E+00
    2.627255E+00    7.017146E+00
    2.631304E+00    7.055921E+00
    2.635437E+00    7.095118E+00
    2.639656E+00    7.134744E+00
    2.643965E+00    7.174807E+00
    2.648366E+00    7.215314E+00
    2.652861E+00    7.256271E+00
    2.657453E+00    7.297689E+00
    2.662143E+00    7.339574E+00
    2.666935E+00    7.381937E+00
    2.671830E+00    7.424787E+00
    2.676832E+00    7.468134E+00
    2.681945E+00    7.511987E+00
    2.687172E+00    7.556357E+00
    2.692518E+00    7.601252E+00
    2.697986E+00    7.646684E+00
    2.703579E+00    7.692661E+00
    2.709302E+00    7.739196E+00
    2.715157E+00    7.786298E+00
    2.721149E+00    7.833979E+00
    2.727281E+00    7.882252E+00
    2.733559E+00    7.931130E+00
    2.739986E+00    7.980624E+00
    2.746569E+00    8.030748E+00
    2.753312E+00    8.081515E+00
    2.760221E+00    8.132939E+00
    2.767301E+00    8.185033E+00
    2.774559E+00    8.237811E+00
    2.781999E+00    8.291287E+00
    2.789628E+00    8.345478E+00
    2.797452E+00    8.400400E+00
    2.805477E+00    8.456068E+00
    2.813711E+00    8.512500E+00
    2.822161E+00    8.569712E+00
    2.830836E+00    8.627723E+00
    2.839742E+00    8.686551E+00
    2.848888E+00    8.746214E+00
    2.858283E+00    8.806733E+00
    2.867935E+00    8.868127E+00
    2.877855E+00    8.930418E+00
    2.888052E+00    8.993626E+00
    2.898536E+00    9.057775E+00
    2.909319E+00    9.122887E+00
    2.920412E+00    9.188986E+00
    2.931827E+00    9.256096E+00
    2.943575E+00    9.324242E+00
    2.955670E+00    9.393452E+00
    2.968126E+00    9.463752E+00
    2.980956E+00    9.535172E+00
    2.994175E+00    9.607740E+00
    3.007801E+00    9.681487E+00
    3.021848E+00    9.756444E+00
    3.036335E+00    9.832645E+00
    3.051280E+00    9.910122E+00
    3.066701E+00    9.988911E+00
    3.082619E+00    1.006905E+01
    3.099055E+00    1.015057E+01
    3.116029E+00    1.023353E+01
    3.133566E+00    1.031795E+01
    3.151690E+00    1.040388E+01
    3.170426E+00    1.049137E+01
    3.189801E+00    1.058047E+01
    3.209846E+00    1.067122E+01
    3.230590E+00    1.076369E+01
    3.252066E+00    1.085792E+01
    3.274310E+00    1.095397E+01
    3.297358E+00    1.105191E+01
    3.321251E+00    1.115180E+01
    3.346033E+00    1.125371E+01
    3.371753E+00    1.135772E+01
    3.398468E+00    1.146390E+01
    3.426237E+00    1.157233E+01
    3.455131E+00    1.168310E+01
    3.485225E+00    1.179629E+01
    3.516601E+00    1.191198E+01
    3.549347E+00    1.203025E+01
    3.583550E+00    1.215119E+01
    3.619298E+00    1.227486E+01
    3.656684E+00    1.240138E+01
    3.695808E+00    1.253083E+01
    3.736786E+00    1.266332E+01
    3.779749E+00    1.279896E+01
    3.824839E+00    1.293784E+01
    3.872197E+00    1.308005E+01
    3.921958E+00    1.322568E+01
    3.974245E+00    1.337481E+01
    4.029189E+00    1.352758E+01
    4.086938E+00    1.368413E+01
    4.147669E+00    1.384463E+01
    4.211591E+00    1.400922E+01
    4.278924E+00    1.417806E+01
    4.349892E+00    1.435129E+01
    4.424715E+00    1.452907E+01
    4.503626E+00    1.471161E+01
    4.586893E+00    1.489915E+01
    4.674849E+00    1.509195E+01
