 Vespa-Simulation Mixed Metabolite Output
 This file was generated by Vespa-Simulation. You can learn about and download Vespa here:
https://github.com/vespa-mrs/vespa/tree/main/vespa

 
 Output Path/Filename = /home/stud/casperc/bhome/Project1(DeepFit)/DeepFit-data-generation/DeepFitData_TE_20_lw18_2048p
 Output Loop Values = (1,1,1)  ( Loop 1 = 10, Loop 2 = 10, Loop3 Inactive )
 Output Comment
 ---------------------------------------------------------------------------
 
 
 Experiment Information
 ---------------------------------------------------------------------------
 --- Experiment 18b0168e-f5f0-4bd4-8d52-da93aba06c60 ---
 Name: SyntheticDataSetDeepFitTE20
 Public: False
 Created: 2024-10-08T09:55:07
 Comment (abbr.): 
 PI: Casper Cappelen
 b0: 127.740000
 Peak Search PPM low/high: -15.000000 / 15.000000
 Blend tol. PPM/phase: 0.001500 / 50.000000
 Pulse seq.: 43be13ae-de9a-40a1-9a2d-c872d8bjs100 (PRESS Ideal)
 0 User static parameters: 
 22 Metabolites: 2-hydroxyglutarate, alanine, choline-trimethyl, creatine, ethanolamine, gaba, glucose-beta, glutamate, glutamine, glutathione-glutamate, glutathione-glycine-cysteine, glycine, GPC-pcholine2, lactate, myo-inositol, n-acetylaspartate, NAAG-truncated, phosphocreatine, phosphorylcholine-trimethyl, phosphorylethanolamine, pyruvate, taurine
 22 Simulations: (not shown)
 
 Metabolite Formatting Information
 ---------------------------------------------------------------------------
 Name=2-hydroxyglutarate Abbr=2HG Scale=1.0 Shift=0.0 PPM Start=-3.1207465171441986 PPM End=12.528391440425866
 Name=alanine Abbr=Ala Scale=1.0 Shift=0.0 PPM Start=-3.1207465171441986 PPM End=12.528391440425866
 Name=choline-trimethyl Abbr=Cho Scale=1.0 Shift=0.0 PPM Start=-3.1207465171441986 PPM End=12.528391440425866
 Name=creatine Abbr=Cr Scale=1.0 Shift=0.0 PPM Start=-3.1207465171441986 PPM End=12.528391440425866
 Name=ethanolamine Abbr=ETA Scale=1.0 Shift=0.0 PPM Start=-3.1207465171441986 PPM End=12.528391440425866
 Name=gaba Abbr=GABA Scale=1.0 Shift=0.0 PPM Start=-3.1207465171441986 PPM End=12.528391440425866
 Name=glucose-beta Abbr=Glc Scale=1.0 Shift=0.0 PPM Start=-3.1207465171441986 PPM End=12.528391440425866
 Name=glutamate Abbr=Glu Scale=1.0 Shift=0.0 PPM Start=-3.1207465171441986 PPM End=12.528391440425866
 Name=glutamine Abbr=Gln Scale=1.0 Shift=0.0 PPM Start=-3.1207465171441986 PPM End=12.528391440425866
 Name=glycine Abbr=Gly Scale=1.0 Shift=0.0 PPM Start=-3.1207465171441986 PPM End=12.528391440425866
 Name=GPC-pcholine2 Abbr=GPC Scale=1.0 Shift=0.0 PPM Start=-3.1207465171441986 PPM End=12.528391440425866
 Name=lactate Abbr=Lac Scale=1.0 Shift=0.0 PPM Start=-3.1207465171441986 PPM End=12.528391440425866
 Name=myo-inositol Abbr=mI Scale=1.0 Shift=0.0 PPM Start=-3.1207465171441986 PPM End=12.528391440425866
 Name=n-acetylaspartate Abbr=NAA Scale=1.0 Shift=0.0 PPM Start=-3.1207465171441986 PPM End=12.528391440425866
 Name=NAAG-truncated Abbr=NAAG Scale=1.0 Shift=0.0 PPM Start=-3.1207465171441986 PPM End=12.528391440425866
 Name=phosphocreatine Abbr=PCr Scale=1.0 Shift=0.0 PPM Start=-3.1207465171441986 PPM End=12.528391440425866
 Name=phosphorylcholine-trimethyl Abbr=PCho Scale=1.0 Shift=0.0 PPM Start=-3.1207465171441986 PPM End=12.528391440425866
 Name=phosphorylethanolamine Abbr=PE Scale=1.0 Shift=0.0 PPM Start=-3.1207465171441986 PPM End=12.528391440425866
 Name=pyruvate Abbr=Pyr Scale=1.0 Shift=0.0 PPM Start=-3.1207465171441986 PPM End=12.528391440425866
 Name=taurine Abbr=Tau Scale=1.0 Shift=0.0 PPM Start=-3.1207465171441986 PPM End=12.528391440425866
 Name=glutathione-glutamate+glutathione-glycine-cysteine Abbr=GSH Scale=1.0 Shift=0.0 PPM Start=-3.1207565171441987 PPM End=12.528
   Mixture of [metab*scale] = glutathione-glutamate*1.000000 + glutathione-glycine-cysteine*1.000000
 
 ===========================================================================
 This LCModel format RAW file was created using the 
 Vespa-Simulation spectral simulation program using 
 the following settings and parameters 
 
 Sweep Width = 2000.0 Hz 
 Vector Size = 2048 points 
 Apodization = 18.0 Hz Lorentzian broadening
 B0 Field    = 127.74 MHz 
 Ref Singlet = False
  
 $NMID ID='GABA'
 FMTDAT='(2E16.6)'
 VOLUME=1.0
 TRAMP=1.0
 $END
    4.688837E+00    7.571226E-02
    2.619035E+00    3.647641E+00
   -1.283026E+00    3.963620E+00
   -3.557525E+00    1.158840E+00
   -2.604234E+00   -1.937989E+00
    1.171035E-01   -2.710461E+00
    1.889735E+00   -1.082928E+00
    1.440137E+00    8.710424E-01
   -1.697291E-01    1.269757E+00
   -1.025319E+00    1.620093E-01
   -3.881988E-01   -9.121872E-01
    7.954928E-01   -7.340154E-01
    1.136556E+00    4.221130E-01
    2.677545E-01    1.292437E+00
   -9.389610E-01    1.011261E+00
   -1.382206E+00   -1.232203E-01
   -7.660977E-01   -1.109877E+00
    3.055970E-01   -1.237111E+00
    1.027314E+00   -5.802320E-01
    1.043146E+00    2.864143E-01
    5.204501E-01    8.484532E-01
   -1.693439E-01    9.158942E-01
   -7.066427E-01    5.454714E-01
   -8.697813E-01   -7.777354E-02
   -5.594006E-01   -6.556602E-01
    8.689330E-02   -8.423588E-01
    6.647146E-01   -4.790967E-01
    7.503156E-01    1.939269E-01
    2.810497E-01    6.555626E-01
   -3.325336E-01    5.442287E-01
   -5.556624E-01    9.765122E-03
   -2.363354E-01   -4.159486E-01
    2.490923E-01   -3.391612E-01
    3.831931E-01    1.068215E-01
    3.866403E-02    4.118315E-01
   -3.973146E-01    2.263782E-01
   -4.335160E-01   -2.725619E-01
    1.018506E-02   -5.647880E-01
    5.147800E-01   -3.226607E-01
    5.828815E-01    2.537441E-01
    1.312517E-01    6.341887E-01
   -4.352450E-01    4.736800E-01
   -6.198616E-01   -7.122205E-02
   -2.922617E-01   -5.145248E-01
    2.257365E-01   -5.008462E-01
    4.893820E-01   -1.016291E-01
    3.286293E-01    3.017952E-01
   -4.977280E-02    3.882357E-01
   -3.005216E-01    1.552386E-01
   -2.531010E-01   -1.396316E-01
   -1.671926E-02   -2.452080E-01
    1.705658E-01   -1.220932E-01
    1.664035E-01    7.290980E-02
    1.853369E-02    1.602676E-01
   -1.178169E-01    8.905873E-02
   -1.294390E-01   -5.093027E-02
   -2.629662E-02   -1.312094E-01
    9.125845E-02   -9.316360E-02
    1.263625E-01    1.977223E-02
    5.815517E-02    1.114356E-01
   -5.297143E-02    1.115579E-01
   -1.185378E-01    2.498435E-02
   -8.974621E-02   -7.749823E-02
    7.592157E-03   -1.155462E-01
    9.473510E-02   -6.130813E-02
    1.025821E-01    3.914459E-02
    2.733695E-02    1.031976E-01
   -6.654685E-02    7.967682E-02
   -1.006431E-01   -8.627709E-03
   -4.900314E-02   -8.526756E-02
    4.100689E-02   -8.649832E-02
    9.173389E-02   -1.533029E-02
    6.313507E-02    6.414155E-02
   -1.521874E-02    8.517725E-02
   -7.441673E-02    3.544934E-02
   -6.809286E-02   -3.724488E-02
   -9.225424E-03   -7.146216E-02
    4.776690E-02   -4.526177E-02
    5.799151E-02    1.078148E-02
    2.201124E-02    4.687117E-02
   -2.210139E-02    3.855494E-02
   -3.716993E-02    2.604401E-03
   -1.793776E-02   -2.480864E-02
    1.066406E-02   -2.257269E-02
    2.087427E-02    1.092693E-04
    6.969653E-03    1.749151E-02
   -1.346044E-02    1.313138E-02
   -1.898941E-02   -6.671088E-03
   -4.318365E-03   -2.153711E-02
    1.664781E-02   -1.691397E-02
    2.485780E-02    3.503172E-03
    1.303439E-02    2.241272E-02
   -9.123405E-03    2.451140E-02
   -2.425576E-02    8.775793E-03
   -2.175561E-02   -1.210270E-02
   -5.106855E-03   -2.296724E-02
    1.258374E-02   -1.777590E-02
    1.957946E-02   -2.545788E-03
    1.355667E-02    1.110408E-02
    1.218930E-03    1.516976E-02
   -8.431666E-03    9.798013E-03
   -1.069806E-02    9.276605E-04
   -6.871360E-03   -5.392234E-03
   -1.257983E-03   -6.867789E-03
    2.699362E-03   -4.824520E-03
    4.040625E-03   -1.724729E-03
    3.465105E-03    8.079530E-04
    1.934513E-03    2.239518E-03
    1.528649E-04    2.501255E-03
   -1.244913E-03    1.707024E-03
   -1.692752E-03    3.458097E-04
   -1.108346E-03   -7.465853E-04
   -1.032618E-04   -9.486760E-04
    4.851418E-04   -3.877454E-04
    3.363249E-04    2.246377E-04
   -1.482949E-04    3.282285E-04
   -3.883108E-04    9.885088E-06
   -2.615351E-04   -2.618620E-04
   -1.057443E-04   -2.809104E-04
   -1.446456E-04   -3.204133E-04
   -9.376170E-05   -6.623049E-04
    5.132066E-04   -1.032027E-03
    1.601583E-03   -6.898958E-04
    2.282565E-03    7.839981E-04
    1.474634E-03    2.772227E-03
   -1.032835E-03    3.767529E-03
   -4.019231E-03    2.434832E-03
   -5.379396E-03   -1.175303E-03
   -3.537360E-03   -5.232312E-03
    1.195601E-03   -7.012054E-03
    6.341032E-03   -4.676108E-03
    8.507841E-03    1.154634E-03
    5.651808E-03    7.260586E-03
   -1.131172E-03    9.618808E-03
   -7.823278E-03    6.221534E-03
   -1.002708E-02   -1.128993E-03
   -6.205122E-03   -7.755826E-03
    1.000623E-03   -9.441855E-03
    6.738268E-03   -5.605631E-03
    7.742362E-03    4.518790E-04
    4.669828E-03    4.543960E-03
    8.556909E-04    5.099082E-03
   -1.200330E-03    3.840952E-03
   -1.995821E-03    3.122204E-03
   -3.590362E-03    2.908413E-03
   -6.235741E-03    8.876065E-04
   -7.074860E-03   -4.194898E-03
   -2.905956E-03   -9.700807E-03
    5.558867E-03   -1.045704E-02
    1.273165E-02   -3.706470E-03
    1.236115E-02    7.180701E-03
    3.391399E-03    1.449879E-02
   -8.304985E-03    1.250468E-02
   -1.443907E-02    2.493148E-03
   -1.113160E-02   -8.217595E-03
   -1.763125E-03   -1.248918E-02
    6.550511E-03   -8.918726E-03
    9.131343E-03   -1.841948E-03
    6.691616E-03    3.467212E-03
    2.969518E-03    5.211433E-03
    3.787610E-04    5.077507E-03
   -1.602240E-03    4.868632E-03
   -4.252313E-03    4.100689E-03
   -6.871940E-03    1.139479E-03
   -6.944348E-03   -3.905972E-03
   -2.959916E-03   -8.233387E-03
    3.445077E-03   -8.587466E-03
    8.484309E-03   -4.249233E-03
    9.230692E-03    2.341895E-03
    5.560400E-03    7.658239E-03
   -4.497192E-04    9.433125E-03
   -6.265440E-03    7.251253E-03
   -9.766851E-03    1.870321E-03
   -9.224479E-03   -5.024518E-03
