 Vespa-Simulation Mixed Metabolite Output
 This file was generated by Vespa-Simulation. You can learn about and download Vespa here:
https://github.com/vespa-mrs/vespa/tree/main/vespa

 
 Output Path/Filename = /home/stud/casperc/bhome/Project1(DeepFit)/DeepFit-data-generation/DeepFitData_TE_20_lw18_2048p
 Output Loop Values = (1,1,1)  ( Loop 1 = 10, Loop 2 = 10, Loop3 Inactive )
 Output Comment
 ---------------------------------------------------------------------------
 
 
 Experiment Information
 ---------------------------------------------------------------------------
 --- Experiment 18b0168e-f5f0-4bd4-8d52-da93aba06c60 ---
 Name: SyntheticDataSetDeepFitTE20
 Public: False
 Created: 2024-10-08T09:55:07
 Comment (abbr.): 
 PI: Casper Cappelen
 b0: 127.740000
 Peak Search PPM low/high: -15.000000 / 15.000000
 Blend tol. PPM/phase: 0.001500 / 50.000000
 Pulse seq.: 43be13ae-de9a-40a1-9a2d-c872d8bjs100 (PRESS Ideal)
 0 User static parameters: 
 22 Metabolites: 2-hydroxyglutarate, alanine, choline-trimethyl, creatine, ethanolamine, gaba, glucose-beta, glutamate, glutamine, glutathione-glutamate, glutathione-glycine-cysteine, glycine, GPC-pcholine2, lactate, myo-inositol, n-acetylaspartate, NAAG-truncated, phosphocreatine, phosphorylcholine-trimethyl, phosphorylethanolamine, pyruvate, taurine
 22 Simulations: (not shown)
 
 Metabolite Formatting Information
 ---------------------------------------------------------------------------
 Name=2-hydroxyglutarate Abbr=2HG Scale=1.0 Shift=0.0 PPM Start=-3.1207465171441986 PPM End=12.528391440425866
 Name=alanine Abbr=Ala Scale=1.0 Shift=0.0 PPM Start=-3.1207465171441986 PPM End=12.528391440425866
 Name=choline-trimethyl Abbr=Cho Scale=1.0 Shift=0.0 PPM Start=-3.1207465171441986 PPM End=12.528391440425866
 Name=creatine Abbr=Cr Scale=1.0 Shift=0.0 PPM Start=-3.1207465171441986 PPM End=12.528391440425866
 Name=ethanolamine Abbr=ETA Scale=1.0 Shift=0.0 PPM Start=-3.1207465171441986 PPM End=12.528391440425866
 Name=gaba Abbr=GABA Scale=1.0 Shift=0.0 PPM Start=-3.1207465171441986 PPM End=12.528391440425866
 Name=glucose-beta Abbr=Glc Scale=1.0 Shift=0.0 PPM Start=-3.1207465171441986 PPM End=12.528391440425866
 Name=glutamate Abbr=Glu Scale=1.0 Shift=0.0 PPM Start=-3.1207465171441986 PPM End=12.528391440425866
 Name=glutamine Abbr=Gln Scale=1.0 Shift=0.0 PPM Start=-3.1207465171441986 PPM End=12.528391440425866
 Name=glycine Abbr=Gly Scale=1.0 Shift=0.0 PPM Start=-3.1207465171441986 PPM End=12.528391440425866
 Name=GPC-pcholine2 Abbr=GPC Scale=1.0 Shift=0.0 PPM Start=-3.1207465171441986 PPM End=12.528391440425866
 Name=lactate Abbr=Lac Scale=1.0 Shift=0.0 PPM Start=-3.1207465171441986 PPM End=12.528391440425866
 Name=myo-inositol Abbr=mI Scale=1.0 Shift=0.0 PPM Start=-3.1207465171441986 PPM End=12.528391440425866
 Name=n-acetylaspartate Abbr=NAA Scale=1.0 Shift=0.0 PPM Start=-3.1207465171441986 PPM End=12.528391440425866
 Name=NAAG-truncated Abbr=NAAG Scale=1.0 Shift=0.0 PPM Start=-3.1207465171441986 PPM End=12.528391440425866
 Name=phosphocreatine Abbr=PCr Scale=1.0 Shift=0.0 PPM Start=-3.1207465171441986 PPM End=12.528391440425866
 Name=phosphorylcholine-trimethyl Abbr=PCho Scale=1.0 Shift=0.0 PPM Start=-3.1207465171441986 PPM End=12.528391440425866
 Name=phosphorylethanolamine Abbr=PE Scale=1.0 Shift=0.0 PPM Start=-3.1207465171441986 PPM End=12.528391440425866
 Name=pyruvate Abbr=Pyr Scale=1.0 Shift=0.0 PPM Start=-3.1207465171441986 PPM End=12.528391440425866
 Name=taurine Abbr=Tau Scale=1.0 Shift=0.0 PPM Start=-3.1207465171441986 PPM End=12.528391440425866
 Name=glutathione-glutamate+glutathione-glycine-cysteine Abbr=GSH Scale=1.0 Shift=0.0 PPM Start=-3.1207565171441987 PPM End=12.528
   Mixture of [metab*scale] = glutathione-glutamate*1.000000 + glutathione-glycine-cysteine*1.000000
 
 ===========================================================================
 This LCModel format RAW file was created using the 
 Vespa-Simulation spectral simulation program using 
 the following settings and parameters 
 
 Sweep Width = 2000.0 Hz 
 Vector Size = 2048 points 
 Apodization = 18.0 Hz Lorentzian broadening
 B0 Field    = 127.74 MHz 
 Ref Singlet = False
  
 $NMID ID='Glc'
 FMTDAT='(2E16.6)'
 VOLUME=1.0
 TRAMP=1.0
 $END
    6.687349E+00    7.877319E-03
    5.872996E+00    2.595967E+00
    4.013868E+00    4.458127E+00
    1.603494E+00    5.221968E+00
   -7.676298E-01    4.806394E+00
   -2.567128E+00    3.420159E+00
   -3.449041E+00    1.485581E+00
   -3.323208E+00   -4.864839E-01
   -2.352430E+00   -2.033240E+00
   -8.845624E-01   -2.850836E+00
    6.562425E-01   -2.852664E+00
    1.886037E+00   -2.164880E+00
    2.553725E+00   -1.067143E+00
    2.587772E+00    9.960609E-02
    2.089903E+00    1.029875E+00
    1.283900E+00    1.528444E+00
    4.387590E-01    1.545980E+00
   -2.097408E-01    1.170805E+00
   -5.178566E-01    5.848885E-01
   -4.596819E-01    5.642797E-04
   -1.174106E-01   -4.021800E-01
    3.563959E-01   -5.210333E-01
    7.905800E-01   -3.493836E-01
    1.045264E+00    3.406269E-02
    1.046701E+00    4.973656E-01
    7.998744E-01    8.975844E-01
    3.785833E-01    1.120586E+00
   -1.012767E-01    1.108350E+00
   -5.160177E-01    8.684761E-01
   -7.662913E-01    4.659411E-01
   -7.993791E-01    1.632659E-03
   -6.175479E-01   -4.152128E-01
   -2.725217E-01   -6.933473E-01
    1.507272E-01   -7.786487E-01
    5.558102E-01   -6.628339E-01
    8.566851E-01   -3.812600E-01
    9.950246E-01   -1.746966E-03
    9.500040E-01    3.921149E-01
    7.396758E-01    7.191811E-01
    4.144910E-01    9.170149E-01
    4.506988E-02    9.530639E-01
   -2.932302E-01    8.293840E-01
   -5.356146E-01    5.802716E-01
   -6.404934E-01    2.636844E-01
   -5.968520E-01   -5.166767E-02
   -4.252758E-01   -3.010875E-01
   -1.723429E-01   -4.373272E-01
    1.003760E-01   -4.401249E-01
    3.303448E-01   -3.196129E-01
    4.680302E-01   -1.129666E-01
    4.877092E-01    1.250684E-01
    3.925042E-01    3.354741E-01
    2.125274E-01    4.690609E-01
   -3.383444E-03    4.978019E-01
   -2.003315E-01    4.207884E-01
   -3.310862E-01    2.632868E-01
   -3.675513E-01    6.928638E-02
   -3.069462E-01   -1.103990E-01
   -1.713597E-01   -2.313908E-01
   -8.989895E-04   -2.667947E-01
    1.575111E-01   -2.132973E-01
    2.626615E-01   -9.086520E-02
    2.894909E-01    6.362253E-02
    2.348236E-01    2.069034E-01
    1.170525E-01    3.009821E-01
   -2.982784E-02    3.228372E-01
   -1.660337E-01    2.696474E-01
   -2.567103E-01    1.583988E-01
   -2.808233E-01    2.030643E-02
   -2.358518E-01   -1.081900E-01
   -1.373235E-01   -1.952901E-01
   -1.365666E-02   -2.217955E-01
    1.020474E-01   -1.853300E-01
    1.809176E-01   -9.983719E-02
    2.054605E-01    9.118262E-03
    1.733061E-01    1.117497E-01
    9.674186E-02    1.820064E-01
   -1.522058E-03    2.039945E-01
   -9.491293E-02    1.752669E-01
   -1.600799E-01    1.064440E-01
   -1.825833E-01    1.750481E-02
   -1.598656E-01   -6.803484E-02
   -1.009463E-01   -1.293293E-01
   -2.322661E-02   -1.532696E-01
    5.259423E-02   -1.371583E-01
    1.079717E-01   -8.852734E-02
    1.310078E-01   -2.241193E-02
    1.188816E-01    4.303827E-02
    7.780034E-02    9.137475E-02
    2.070024E-02    1.118051E-01
   -3.654266E-02    1.014386E-01
   -7.932168E-02    6.536073E-02
   -9.785672E-02    1.470783E-02
   -8.924115E-02   -3.659193E-02
   -5.764030E-02   -7.552519E-02
   -1.269515E-02   -9.318463E-02
    3.329320E-02   -8.667688E-02
    6.864124E-02   -5.941323E-02
    8.515957E-02   -1.980574E-02
    7.995999E-02    2.119154E-02
    5.581264E-02    5.297743E-02
    2.008885E-02    6.793120E-02
   -1.736699E-02    6.311746E-02
   -4.684228E-02    4.072158E-02
   -6.114105E-02    7.196589E-03
   -5.721478E-02   -2.858178E-02
   -3.666022E-02   -5.764522E-02
   -5.054766E-03   -7.312009E-02
    2.963763E-02   -7.177943E-02
    5.913583E-02   -5.460177E-02
    7.685882E-02   -2.626864E-02
    7.938098E-02    6.186264E-03
    6.704351E-02    3.521173E-02
    4.361086E-02    5.456216E-02
    1.512702E-02    6.068122E-02
   -1.167472E-02    5.332447E-02
   -3.101232E-02    3.535664E-02
   -3.933555E-02    1.181092E-02
   -3.595589E-02   -1.148315E-02
   -2.294792E-02   -2.935030E-02
   -4.390145E-03   -3.843210E-02
    1.481332E-02   -3.780738E-02
    3.019450E-02   -2.896008E-02
    3.876860E-02   -1.516525E-02
    3.961374E-02   -4.872129E-04
    3.388359E-02    1.133255E-02
    2.429249E-02    1.779786E-02
    1.424639E-02    1.819245E-02
    6.861520E-03    1.360516E-02
    4.131072E-03    6.478836E-03
    6.442695E-03   -1.728305E-04
    1.255930E-02   -3.660748E-03
    2.003784E-02   -2.388454E-03
    2.596827E-02    3.702478E-03
    2.782571E-02    1.311856E-02
    2.420954E-02    2.322693E-02
    1.527576E-02    3.098040E-02
    2.752101E-03    3.376238E-02
   -1.047930E-02    3.013105E-02
   -2.109954E-02    2.026189E-02
   -2.622011E-02    5.979199E-03
   -2.415138E-02   -9.645269E-03
   -1.488254E-02   -2.302490E-02
   -1.437244E-04   -3.093885E-02
    1.696886E-02   -3.133816E-02
    3.272414E-02   -2.386726E-02
    4.363491E-02   -9.974139E-03
    4.729666E-02    7.426694E-03
    4.294934E-02    2.464977E-02
    3.163290E-02    3.811517E-02
    1.590145E-02    4.518353E-02
   -8.216212E-04    4.474013E-02
   -1.508918E-02    3.738813E-02
   -2.422296E-02    2.521229E-02
   -2.689941E-02    1.119653E-02
   -2.335640E-02   -1.547310E-03
   -1.520163E-02   -1.052845E-02
   -4.894370E-03   -1.441323E-02
    4.942956E-03   -1.322377E-02
    1.218979E-02   -8.172816E-03
    1.569781E-02   -1.204333E-03
    1.544932E-02    5.603752E-03
    1.240023E-02    1.060904E-02
    8.071838E-03    1.298599E-02
    4.034189E-03    1.283253E-02
    1.438106E-03    1.099870E-02
    7.270522E-04    8.714435E-03
    1.593424E-03    7.145910E-03
    3.174730E-03    7.019779E-03
    4.400092E-03    8.422365E-03
    4.374444E-03    1.081981E-02
    2.676513E-03    1.327471E-02
   -5.140802E-04    1.477716E-02
   -4.486413E-03    1.457988E-02
