 Vespa-Simulation Mixed Metabolite Output
 This file was generated by Vespa-Simulation. You can learn about and download Vespa here:
https://github.com/vespa-mrs/vespa/tree/main/vespa

 
 Output Path/Filename = /home/stud/casperc/bhome/Project1(DeepFit)/DeepFit-data-generation/DeepFitData_TE_20_lw18_2048p
 Output Loop Values = (1,1,1)  ( Loop 1 = 10, Loop 2 = 10, Loop3 Inactive )
 Output Comment
 ---------------------------------------------------------------------------
 
 
 Experiment Information
 ---------------------------------------------------------------------------
 --- Experiment 18b0168e-f5f0-4bd4-8d52-da93aba06c60 ---
 Name: SyntheticDataSetDeepFitTE20
 Public: False
 Created: 2024-10-08T09:55:07
 Comment (abbr.): 
 PI: Casper Cappelen
 b0: 127.740000
 Peak Search PPM low/high: -15.000000 / 15.000000
 Blend tol. PPM/phase: 0.001500 / 50.000000
 Pulse seq.: 43be13ae-de9a-40a1-9a2d-c872d8bjs100 (PRESS Ideal)
 0 User static parameters: 
 22 Metabolites: 2-hydroxyglutarate, alanine, choline-trimethyl, creatine, ethanolamine, gaba, glucose-beta, glutamate, glutamine, glutathione-glutamate, glutathione-glycine-cysteine, glycine, GPC-pcholine2, lactate, myo-inositol, n-acetylaspartate, NAAG-truncated, phosphocreatine, phosphorylcholine-trimethyl, phosphorylethanolamine, pyruvate, taurine
 22 Simulations: (not shown)
 
 Metabolite Formatting Information
 ---------------------------------------------------------------------------
 Name=2-hydroxyglutarate Abbr=2HG Scale=1.0 Shift=0.0 PPM Start=-3.1207465171441986 PPM End=12.528391440425866
 Name=alanine Abbr=Ala Scale=1.0 Shift=0.0 PPM Start=-3.1207465171441986 PPM End=12.528391440425866
 Name=choline-trimethyl Abbr=Cho Scale=1.0 Shift=0.0 PPM Start=-3.1207465171441986 PPM End=12.528391440425866
 Name=creatine Abbr=Cr Scale=1.0 Shift=0.0 PPM Start=-3.1207465171441986 PPM End=12.528391440425866
 Name=ethanolamine Abbr=ETA Scale=1.0 Shift=0.0 PPM Start=-3.1207465171441986 PPM End=12.528391440425866
 Name=gaba Abbr=GABA Scale=1.0 Shift=0.0 PPM Start=-3.1207465171441986 PPM End=12.528391440425866
 Name=glucose-beta Abbr=Glc Scale=1.0 Shift=0.0 PPM Start=-3.1207465171441986 PPM End=12.528391440425866
 Name=glutamate Abbr=Glu Scale=1.0 Shift=0.0 PPM Start=-3.1207465171441986 PPM End=12.528391440425866
 Name=glutamine Abbr=Gln Scale=1.0 Shift=0.0 PPM Start=-3.1207465171441986 PPM End=12.528391440425866
 Name=glycine Abbr=Gly Scale=1.0 Shift=0.0 PPM Start=-3.1207465171441986 PPM End=12.528391440425866
 Name=GPC-pcholine2 Abbr=GPC Scale=1.0 Shift=0.0 PPM Start=-3.1207465171441986 PPM End=12.528391440425866
 Name=lactate Abbr=Lac Scale=1.0 Shift=0.0 PPM Start=-3.1207465171441986 PPM End=12.528391440425866
 Name=myo-inositol Abbr=mI Scale=1.0 Shift=0.0 PPM Start=-3.1207465171441986 PPM End=12.528391440425866
 Name=n-acetylaspartate Abbr=NAA Scale=1.0 Shift=0.0 PPM Start=-3.1207465171441986 PPM End=12.528391440425866
 Name=NAAG-truncated Abbr=NAAG Scale=1.0 Shift=0.0 PPM Start=-3.1207465171441986 PPM End=12.528391440425866
 Name=phosphocreatine Abbr=PCr Scale=1.0 Shift=0.0 PPM Start=-3.1207465171441986 PPM End=12.528391440425866
 Name=phosphorylcholine-trimethyl Abbr=PCho Scale=1.0 Shift=0.0 PPM Start=-3.1207465171441986 PPM End=12.528391440425866
 Name=phosphorylethanolamine Abbr=PE Scale=1.0 Shift=0.0 PPM Start=-3.1207465171441986 PPM End=12.528391440425866
 Name=pyruvate Abbr=Pyr Scale=1.0 Shift=0.0 PPM Start=-3.1207465171441986 PPM End=12.528391440425866
 Name=taurine Abbr=Tau Scale=1.0 Shift=0.0 PPM Start=-3.1207465171441986 PPM End=12.528391440425866
 Name=glutathione-glutamate+glutathione-glycine-cysteine Abbr=GSH Scale=1.0 Shift=0.0 PPM Start=-3.1207565171441987 PPM End=12.528
   Mixture of [metab*scale] = glutathione-glutamate*1.000000 + glutathione-glycine-cysteine*1.000000
 
 ===========================================================================
 This LCModel format RAW file was created using the 
 Vespa-Simulation spectral simulation program using 
 the following settings and parameters 
 
 Sweep Width = 2000.0 Hz 
 Vector Size = 2048 points 
 Apodization = 18.0 Hz Lorentzian broadening
 B0 Field    = 127.74 MHz 
 Ref Singlet = False
  
 This data has been FFTd to be in the FREQUENCY domain
 
 $NMID ID='Glc'
 FMTDAT='(2E16.6)'
 VOLUME=1.0
 TRAMP=1.0
 $END
    1.977586E+01    2.289305E+01
    2.083409E+01    2.216220E+01
    2.176608E+01    2.124589E+01
    2.251209E+01    2.018683E+01
    2.303310E+01    1.905697E+01
    2.332861E+01    1.794485E+01
    2.344481E+01    1.693124E+01
    2.346564E+01    1.606137E+01
    2.348686E+01    1.532679E+01
    2.358297E+01    1.466611E+01
    2.378014E+01    1.398528E+01
    2.404532E+01    1.318994E+01
    2.429547E+01    1.221871E+01
    2.442430E+01    1.106559E+01
    2.433703E+01    9.782638E+00
    2.397920E+01    8.462118E+00
    2.334821E+01    7.206795E+00
    2.248575E+01    6.102442E+00
    2.145874E+01    5.202552E+00
    2.033937E+01    4.526788E+00
    1.919119E+01    4.068364E+00
    1.806268E+01    3.804258E+00
    1.698653E+01    3.704212E+00
    1.598197E+01    3.736966E+00
    1.505812E+01    3.873800E+00
    1.421716E+01    4.090099E+00
    1.345688E+01    4.365694E+00
    1.277260E+01    4.684553E+00
    1.215837E+01    5.034206E+00
    1.160781E+01    5.405127E+00
    1.111462E+01    5.790145E+00
    1.067279E+01    6.183950E+00
    1.027686E+01    6.582666E+00
    9.921895E+00    6.983515E+00
    9.603530E+00    7.384541E+00
    9.317935E+00    7.784398E+00
    9.061769E+00    8.182185E+00
    8.832123E+00    8.577316E+00
    8.626455E+00    8.969430E+00
    8.442533E+00    9.358324E+00
    8.278372E+00    9.743914E+00
    8.132192E+00    1.012622E+01
    8.002382E+00    1.050534E+01
    7.887490E+00    1.088151E+01
    7.786218E+00    1.125501E+01
    7.697425E+00    1.162623E+01
    7.620138E+00    1.199560E+01
    7.553531E+00    1.236358E+01
    7.496913E+00    1.273063E+01
    7.449687E+00    1.309717E+01
    7.411329E+00    1.346364E+01
    7.381366E+00    1.383046E+01
    7.359374E+00    1.419809E+01
    7.344983E+00    1.456700E+01
    7.337894E+00    1.493770E+01
    7.337875E+00    1.531072E+01
    7.344769E+00    1.568661E+01
    7.358485E+00    1.606592E+01
    7.378996E+00    1.644919E+01
    7.406329E+00    1.683699E+01
    7.440567E+00    1.722987E+01
    7.481843E+00    1.762841E+01
    7.530340E+00    1.803318E+01
    7.586298E+00    1.844479E+01
    7.650008E+00    1.886382E+01
    7.721825E+00    1.929093E+01
    7.802168E+00    1.972677E+01
    7.891527E+00    2.017202E+01
    7.990474E+00    2.062738E+01
    8.099671E+00    2.109361E+01
    8.219884E+00    2.157148E+01
    8.351994E+00    2.206179E+01
    8.497015E+00    2.256538E+01
    8.656115E+00    2.308313E+01
    8.830639E+00    2.361593E+01
    9.022134E+00    2.416471E+01
    9.232387E+00    2.473041E+01
    9.463458E+00    2.531395E+01
    9.717731E+00    2.591624E+01
    9.997962E+00    2.653813E+01
    1.030734E+01    2.718037E+01
    1.064957E+01    2.784352E+01
    1.102891E+01    2.852789E+01
    1.145031E+01    2.923339E+01
    1.191941E+01    2.995935E+01
    1.244267E+01    3.070432E+01
    1.302735E+01    3.146567E+01
    1.368148E+01    3.223927E+01
    1.441366E+01    3.301890E+01
    1.523265E+01    3.379564E+01
    1.614668E+01    3.455726E+01
    1.716217E+01    3.528758E+01
    1.828202E+01    3.596631E+01
    1.950314E+01    3.656965E+01
    2.081386E+01    3.707224E+01
    2.219178E+01    3.745116E+01
    2.360375E+01    3.769175E+01
    2.500952E+01    3.779432E+01
    2.636998E+01    3.777890E+01
    2.765880E+01    3.768466E+01
    2.887321E+01    3.756178E+01
    3.003892E+01    3.745725E+01
    3.120598E+01    3.739934E+01
    3.243686E+01    3.738647E+01
    3.379051E+01    3.738368E+01
    3.530718E+01    3.732651E+01
    3.699604E+01    3.713070E+01
    3.882693E+01    3.670619E+01
    4.072746E+01    3.597494E+01
    4.258821E+01    3.489131E+01
    4.427913E+01    3.346074E+01
    4.567680E+01    3.174920E+01
    4.669629E+01    2.987581E+01
    4.731545E+01    2.798719E+01
    4.758071E+01    2.622119E+01
    4.759149E+01    2.467414E+01
    4.747076E+01    2.338323E+01
    4.733373E+01    2.232729E+01
    4.726423E+01    2.144149E+01
    4.730243E+01    2.063848E+01
    4.744325E+01    1.983005E+01
    4.764318E+01    1.894568E+01
    4.783336E+01    1.794574E+01
    4.793606E+01    1.682741E+01
    4.788105E+01    1.562304E+01
    4.761855E+01    1.439214E+01
    4.712696E+01    1.321009E+01
    4.641582E+01    1.215589E+01
    4.552451E+01    1.129991E+01
    4.451639E+01    1.069252E+01
    4.346798E+01    1.035573E+01
    4.245509E+01    1.028093E+01
    4.153950E+01    1.043370E+01
    4.076048E+01    1.076438E+01
    4.013275E+01    1.122034E+01
    3.965038E+01    1.175661E+01
    3.929419E+01    1.234236E+01
    3.903997E+01    1.296321E+01
    3.886576E+01    1.362014E+01
    3.875768E+01    1.432629E+01
    3.871414E+01    1.510211E+01
    3.874797E+01    1.596899E+01
    3.888539E+01    1.694243E+01
    3.916165E+01    1.802641E+01
    3.961452E+01    1.921100E+01
    4.027805E+01    2.047373E+01
    4.117856E+01    2.178368E+01
    4.233372E+01    2.310637E+01
    4.375456E+01    2.440750E+01
    4.544876E+01    2.565425E+01
    4.742361E+01    2.681391E+01
    4.968693E+01    2.785075E+01
    5.224532E+01    2.872303E+01
    5.510083E+01    2.938172E+01
    5.824729E+01    2.977152E+01
    6.166815E+01    2.983352E+01
    6.533631E+01    2.950801E+01
    6.921533E+01    2.873573E+01
    7.326022E+01    2.745671E+01
    7.741531E+01    2.560736E+01
    8.160750E+01    2.311866E+01
    8.573560E+01    1.991942E+01
    8.965923E+01    1.594809E+01
    9.319373E+01    1.117394E+01
    9.611730E+01    5.624027E+00
    9.819491E+01   -5.917921E-01
    9.921818E+01   -7.268630E+00
    9.905268E+01   -1.411767E+01
    9.767695E+01   -2.080452E+01
    9.519584E+01   -2.700634E+01
    9.182049E+01   -3.246826E+01
    8.782245E+01   -3.703873E+01
