 Vespa-Simulation Mixed Metabolite Output
 This file was generated by Vespa-Simulation. You can learn about and download Vespa here:
https://github.com/vespa-mrs/vespa/tree/main/vespa

 
 Output Path/Filename = /home/stud/casperc/bhome/Project1(DeepFit)/DeepFit-data-generation/DeepFitData_TE_20_lw18_2048p
 Output Loop Values = (1,1,1)  ( Loop 1 = 10, Loop 2 = 10, Loop3 Inactive )
 Output Comment
 ---------------------------------------------------------------------------
 
 
 Experiment Information
 ---------------------------------------------------------------------------
 --- Experiment 18b0168e-f5f0-4bd4-8d52-da93aba06c60 ---
 Name: SyntheticDataSetDeepFitTE20
 Public: False
 Created: 2024-10-08T09:55:07
 Comment (abbr.): 
 PI: Casper Cappelen
 b0: 127.740000
 Peak Search PPM low/high: -15.000000 / 15.000000
 Blend tol. PPM/phase: 0.001500 / 50.000000
 Pulse seq.: 43be13ae-de9a-40a1-9a2d-c872d8bjs100 (PRESS Ideal)
 0 User static parameters: 
 22 Metabolites: 2-hydroxyglutarate, alanine, choline-trimethyl, creatine, ethanolamine, gaba, glucose-beta, glutamate, glutamine, glutathione-glutamate, glutathione-glycine-cysteine, glycine, GPC-pcholine2, lactate, myo-inositol, n-acetylaspartate, NAAG-truncated, phosphocreatine, phosphorylcholine-trimethyl, phosphorylethanolamine, pyruvate, taurine
 22 Simulations: (not shown)
 
 Metabolite Formatting Information
 ---------------------------------------------------------------------------
 Name=2-hydroxyglutarate Abbr=2HG Scale=1.0 Shift=0.0 PPM Start=-3.1207465171441986 PPM End=12.528391440425866
 Name=alanine Abbr=Ala Scale=1.0 Shift=0.0 PPM Start=-3.1207465171441986 PPM End=12.528391440425866
 Name=choline-trimethyl Abbr=Cho Scale=1.0 Shift=0.0 PPM Start=-3.1207465171441986 PPM End=12.528391440425866
 Name=creatine Abbr=Cr Scale=1.0 Shift=0.0 PPM Start=-3.1207465171441986 PPM End=12.528391440425866
 Name=ethanolamine Abbr=ETA Scale=1.0 Shift=0.0 PPM Start=-3.1207465171441986 PPM End=12.528391440425866
 Name=gaba Abbr=GABA Scale=1.0 Shift=0.0 PPM Start=-3.1207465171441986 PPM End=12.528391440425866
 Name=glucose-beta Abbr=Glc Scale=1.0 Shift=0.0 PPM Start=-3.1207465171441986 PPM End=12.528391440425866
 Name=glutamate Abbr=Glu Scale=1.0 Shift=0.0 PPM Start=-3.1207465171441986 PPM End=12.528391440425866
 Name=glutamine Abbr=Gln Scale=1.0 Shift=0.0 PPM Start=-3.1207465171441986 PPM End=12.528391440425866
 Name=glycine Abbr=Gly Scale=1.0 Shift=0.0 PPM Start=-3.1207465171441986 PPM End=12.528391440425866
 Name=GPC-pcholine2 Abbr=GPC Scale=1.0 Shift=0.0 PPM Start=-3.1207465171441986 PPM End=12.528391440425866
 Name=lactate Abbr=Lac Scale=1.0 Shift=0.0 PPM Start=-3.1207465171441986 PPM End=12.528391440425866
 Name=myo-inositol Abbr=mI Scale=1.0 Shift=0.0 PPM Start=-3.1207465171441986 PPM End=12.528391440425866
 Name=n-acetylaspartate Abbr=NAA Scale=1.0 Shift=0.0 PPM Start=-3.1207465171441986 PPM End=12.528391440425866
 Name=NAAG-truncated Abbr=NAAG Scale=1.0 Shift=0.0 PPM Start=-3.1207465171441986 PPM End=12.528391440425866
 Name=phosphocreatine Abbr=PCr Scale=1.0 Shift=0.0 PPM Start=-3.1207465171441986 PPM End=12.528391440425866
 Name=phosphorylcholine-trimethyl Abbr=PCho Scale=1.0 Shift=0.0 PPM Start=-3.1207465171441986 PPM End=12.528391440425866
 Name=phosphorylethanolamine Abbr=PE Scale=1.0 Shift=0.0 PPM Start=-3.1207465171441986 PPM End=12.528391440425866
 Name=pyruvate Abbr=Pyr Scale=1.0 Shift=0.0 PPM Start=-3.1207465171441986 PPM End=12.528391440425866
 Name=taurine Abbr=Tau Scale=1.0 Shift=0.0 PPM Start=-3.1207465171441986 PPM End=12.528391440425866
 Name=glutathione-glutamate+glutathione-glycine-cysteine Abbr=GSH Scale=1.0 Shift=0.0 PPM Start=-3.1207565171441987 PPM End=12.528
   Mixture of [metab*scale] = glutathione-glutamate*1.000000 + glutathione-glycine-cysteine*1.000000
 
 ===========================================================================
 This LCModel format RAW file was created using the 
 Vespa-Simulation spectral simulation program using 
 the following settings and parameters 
 
 Sweep Width = 2000.0 Hz 
 Vector Size = 2048 points 
 Apodization = 18.0 Hz Lorentzian broadening
 B0 Field    = 127.74 MHz 
 Ref Singlet = False
  
 $NMID ID='Gln'
 FMTDAT='(2E16.6)'
 VOLUME=1.0
 TRAMP=1.0
 $END
    6.648551E+00    1.452317E-02
    3.910926E+00    1.742321E+00
   -1.422507E+00    2.232376E+00
   -4.666107E+00    1.247802E+00
   -3.437603E+00   -3.356727E-01
    4.804869E-01   -1.156248E+00
    3.233405E+00   -4.743942E-01
    2.573910E+00    1.104652E+00
   -4.252792E-01    2.043956E+00
   -2.878308E+00    1.236351E+00
   -2.911561E+00   -8.712507E-01
   -1.026645E+00   -2.543476E+00
    9.074118E-01   -2.311276E+00
    1.576835E+00   -3.867578E-01
    1.102994E+00    1.479811E+00
    3.896145E-01    1.638074E+00
    2.806212E-02    9.818879E-02
   -4.629375E-02   -1.522846E+00
   -8.449909E-02   -1.605292E+00
   -6.805975E-02   -7.407617E-02
    1.643440E-01    1.619987E+00
    5.089157E-01    1.980955E+00
    5.565388E-01    8.669431E-01
    4.362558E-02   -5.437080E-01
   -7.519754E-01   -1.036188E+00
   -1.191433E+00   -4.893207E-01
   -8.845809E-01    2.361155E-01
   -7.893699E-02    3.505009E-01
    5.817027E-01   -8.957418E-02
    6.582802E-01   -4.416646E-01
    2.595301E-01   -3.229941E-01
   -1.611850E-01   -1.333052E-02
   -2.642102E-01   -7.215471E-03
   -5.874813E-02   -3.295209E-01
    2.311844E-01   -4.694049E-01
    4.165974E-01   -1.876869E-02
    4.316292E-01    7.505061E-01
    2.679023E-01    1.084985E+00
   -5.366289E-02    5.517938E-01
   -4.139479E-01   -4.348491E-01
   -5.849883E-01   -9.705460E-01
   -4.006127E-01   -5.577396E-01
    3.158639E-02    3.877130E-01
    3.538835E-01    9.443440E-01
    2.747815E-01    5.833482E-01
   -1.204438E-01   -3.478938E-01
   -4.201747E-01   -1.003263E+00
   -2.913486E-01   -8.488094E-01
    1.692479E-01   -1.014128E-01
    5.208123E-01    5.648910E-01
    4.290502E-01    6.682845E-01
    9.533803E-03    2.777197E-01
   -3.024972E-01   -1.774959E-01
   -2.152629E-01   -3.489409E-01
    1.212828E-01   -2.092887E-01
    2.967130E-01    4.972273E-02
    9.419646E-02    2.448504E-01
   -2.780925E-01    3.031090E-01
   -4.208864E-01    2.184639E-01
   -1.781381E-01    1.094662E-02
    2.000562E-01   -2.402146E-01
    3.310372E-01   -3.815314E-01
    1.031866E-01   -2.847386E-01
   -2.213016E-01    8.569518E-03
   -2.966321E-01    2.749954E-01
   -5.150066E-02    2.919084E-01
    2.589031E-01    5.174438E-02
    3.354602E-01   -2.191171E-01
    1.333656E-01   -2.728854E-01
   -1.270759E-01   -7.438105E-02
   -2.123048E-01    1.794426E-01
   -9.992204E-02    2.649105E-01
    4.596261E-02    1.418060E-01
    7.961575E-02   -4.026204E-02
    1.360464E-02   -1.194170E-01
   -4.065842E-02   -7.673651E-02
   -2.637874E-02   -1.407203E-02
    3.877872E-03   -1.038776E-02
   -1.865860E-02   -3.676169E-02
   -7.261272E-02   -1.877430E-02
   -6.732645E-02    4.827110E-02
    3.478936E-02    8.227182E-02
    1.499779E-01    1.825992E-02
    1.525163E-01   -9.617365E-02
    1.795635E-02   -1.373682E-01
   -1.353389E-01   -4.156788E-02
   -1.613242E-01    1.136255E-01
   -3.698708E-02    1.803796E-01
    1.137861E-01    9.230687E-02
    1.475561E-01   -6.647255E-02
    4.272118E-02   -1.483412E-01
   -9.038920E-02   -9.017012E-02
   -1.301357E-01    3.339724E-02
   -6.000899E-02    9.867562E-02
    3.503560E-02    5.947533E-02
    7.025228E-02   -2.197284E-02
    4.101114E-02   -5.839249E-02
    3.196198E-03   -3.119256E-02
   -4.347653E-03    6.639780E-03
    2.329430E-03    7.017353E-03
   -9.733895E-03   -1.599173E-02
   -3.571044E-02   -1.321636E-02
   -3.533061E-02    2.870920E-02
    1.083849E-02    6.356355E-02
    6.468783E-02    3.967522E-02
    6.511516E-02   -3.283469E-02
   -1.401788E-03   -8.398433E-02
   -7.678147E-02   -5.741104E-02
   -8.679058E-02    2.587598E-02
   -1.864929E-02    8.571408E-02
    6.370758E-02    6.465703E-02
    8.408920E-02   -1.432579E-02
    2.952787E-02   -7.426445E-02
   -4.171755E-02   -6.321651E-02
   -6.358071E-02   -1.428021E-03
   -2.646372E-02    4.797247E-02
    2.285070E-02    4.601476E-02
    3.720116E-02    9.698673E-03
    1.534318E-02   -1.791618E-02
   -8.082802E-03   -1.721639E-02
   -8.602627E-03   -4.941614E-03
    2.848995E-03   -3.620599E-03
    1.200438E-03   -1.095579E-02
   -1.628186E-02   -6.695188E-03
   -2.501512E-02    1.520925E-02
   -5.258153E-03    3.271513E-02
    2.904413E-02    2.000890E-02
    4.159735E-02   -1.838938E-02
    1.424982E-02   -4.633315E-02
   -2.972173E-02   -3.286155E-02
   -4.750464E-02    1.275751E-02
   -2.109898E-02    4.780489E-02
    2.388261E-02    3.907303E-02
    4.478902E-02   -3.602748E-03
    2.469883E-02   -3.853042E-02
   -1.348522E-02   -3.496240E-02
   -3.358394E-02   -1.795026E-03
   -2.226768E-02    2.591887E-02
    2.751728E-03    2.466647E-02
    1.638599E-02    3.143012E-03
    1.199905E-02   -1.291261E-02
    2.247578E-03   -1.050417E-02
   -7.195141E-04    9.439782E-05
    7.825678E-04    2.403680E-03
   -2.660302E-03   -5.027068E-03
   -1.122736E-02   -8.604301E-03
   -1.321743E-02    1.025459E-03
   -2.999095E-04    1.526312E-02
    1.865403E-02    1.661723E-02
    2.403323E-02   -6.843009E-05
    6.970437E-03   -1.955713E-02
   -1.851262E-02   -2.153618E-02
   -2.801337E-02   -2.612362E-03
   -1.176120E-02    1.943552E-02
    1.472309E-02    2.380508E-02
    2.613602E-02    7.487174E-03
    1.276032E-02   -1.301748E-02
   -1.084024E-02   -1.945982E-02
   -2.192792E-02   -9.220271E-03
   -1.241827E-02    5.065338E-03
    5.285374E-03    1.054613E-02
    1.351922E-02    6.130912E-03
    7.538077E-03   -1.861668E-04
   -2.415043E-03   -2.536389E-03
   -4.882600E-03   -2.626696E-03
    2.839972E-04   -4.358474E-03
    4.116767E-03   -6.449226E-03
    8.946804E-04   -3.512528E-03
   -4.880149E-03    5.648966E-03
   -4.727570E-03    1.372886E-02
    2.639052E-03    1.147739E-02
    8.993465E-03   -1.418718E-03
    6.005785E-03   -1.400005E-02
   -4.678802E-03   -1.422602E-02
