 Vespa-Simulation Mixed Metabolite Output
 This file was generated by Vespa-Simulation. You can learn about and download Vespa here:
https://github.com/vespa-mrs/vespa/tree/main/vespa

 
 Output Path/Filename = /home/stud/casperc/bhome/Project1(DeepFit)/DeepFit-data-generation/DeepFitData_TE_20_lw18_2048p
 Output Loop Values = (1,1,1)  ( Loop 1 = 10, Loop 2 = 10, Loop3 Inactive )
 Output Comment
 ---------------------------------------------------------------------------
 
 
 Experiment Information
 ---------------------------------------------------------------------------
 --- Experiment 18b0168e-f5f0-4bd4-8d52-da93aba06c60 ---
 Name: SyntheticDataSetDeepFitTE20
 Public: False
 Created: 2024-10-08T09:55:07
 Comment (abbr.): 
 PI: Casper Cappelen
 b0: 127.740000
 Peak Search PPM low/high: -15.000000 / 15.000000
 Blend tol. PPM/phase: 0.001500 / 50.000000
 Pulse seq.: 43be13ae-de9a-40a1-9a2d-c872d8bjs100 (PRESS Ideal)
 0 User static parameters: 
 22 Metabolites: 2-hydroxyglutarate, alanine, choline-trimethyl, creatine, ethanolamine, gaba, glucose-beta, glutamate, glutamine, glutathione-glutamate, glutathione-glycine-cysteine, glycine, GPC-pcholine2, lactate, myo-inositol, n-acetylaspartate, NAAG-truncated, phosphocreatine, phosphorylcholine-trimethyl, phosphorylethanolamine, pyruvate, taurine
 22 Simulations: (not shown)
 
 Metabolite Formatting Information
 ---------------------------------------------------------------------------
 Name=2-hydroxyglutarate Abbr=2HG Scale=1.0 Shift=0.0 PPM Start=-3.1207465171441986 PPM End=12.528391440425866
 Name=alanine Abbr=Ala Scale=1.0 Shift=0.0 PPM Start=-3.1207465171441986 PPM End=12.528391440425866
 Name=choline-trimethyl Abbr=Cho Scale=1.0 Shift=0.0 PPM Start=-3.1207465171441986 PPM End=12.528391440425866
 Name=creatine Abbr=Cr Scale=1.0 Shift=0.0 PPM Start=-3.1207465171441986 PPM End=12.528391440425866
 Name=ethanolamine Abbr=ETA Scale=1.0 Shift=0.0 PPM Start=-3.1207465171441986 PPM End=12.528391440425866
 Name=gaba Abbr=GABA Scale=1.0 Shift=0.0 PPM Start=-3.1207465171441986 PPM End=12.528391440425866
 Name=glucose-beta Abbr=Glc Scale=1.0 Shift=0.0 PPM Start=-3.1207465171441986 PPM End=12.528391440425866
 Name=glutamate Abbr=Glu Scale=1.0 Shift=0.0 PPM Start=-3.1207465171441986 PPM End=12.528391440425866
 Name=glutamine Abbr=Gln Scale=1.0 Shift=0.0 PPM Start=-3.1207465171441986 PPM End=12.528391440425866
 Name=glycine Abbr=Gly Scale=1.0 Shift=0.0 PPM Start=-3.1207465171441986 PPM End=12.528391440425866
 Name=GPC-pcholine2 Abbr=GPC Scale=1.0 Shift=0.0 PPM Start=-3.1207465171441986 PPM End=12.528391440425866
 Name=lactate Abbr=Lac Scale=1.0 Shift=0.0 PPM Start=-3.1207465171441986 PPM End=12.528391440425866
 Name=myo-inositol Abbr=mI Scale=1.0 Shift=0.0 PPM Start=-3.1207465171441986 PPM End=12.528391440425866
 Name=n-acetylaspartate Abbr=NAA Scale=1.0 Shift=0.0 PPM Start=-3.1207465171441986 PPM End=12.528391440425866
 Name=NAAG-truncated Abbr=NAAG Scale=1.0 Shift=0.0 PPM Start=-3.1207465171441986 PPM End=12.528391440425866
 Name=phosphocreatine Abbr=PCr Scale=1.0 Shift=0.0 PPM Start=-3.1207465171441986 PPM End=12.528391440425866
 Name=phosphorylcholine-trimethyl Abbr=PCho Scale=1.0 Shift=0.0 PPM Start=-3.1207465171441986 PPM End=12.528391440425866
 Name=phosphorylethanolamine Abbr=PE Scale=1.0 Shift=0.0 PPM Start=-3.1207465171441986 PPM End=12.528391440425866
 Name=pyruvate Abbr=Pyr Scale=1.0 Shift=0.0 PPM Start=-3.1207465171441986 PPM End=12.528391440425866
 Name=taurine Abbr=Tau Scale=1.0 Shift=0.0 PPM Start=-3.1207465171441986 PPM End=12.528391440425866
 Name=glutathione-glutamate+glutathione-glycine-cysteine Abbr=GSH Scale=1.0 Shift=0.0 PPM Start=-3.1207565171441987 PPM End=12.528
   Mixture of [metab*scale] = glutathione-glutamate*1.000000 + glutathione-glycine-cysteine*1.000000
 
 ===========================================================================
 This LCModel format RAW file was created using the 
 Vespa-Simulation spectral simulation program using 
 the following settings and parameters 
 
 Sweep Width = 2000.0 Hz 
 Vector Size = 2048 points 
 Apodization = 18.0 Hz Lorentzian broadening
 B0 Field    = 127.74 MHz 
 Ref Singlet = False
  
 This data has been FFTd to be in the FREQUENCY domain
 
 $NMID ID='Gln'
 FMTDAT='(2E16.6)'
 VOLUME=1.0
 TRAMP=1.0
 $END
    3.673130E+00    3.980651E+00
    3.676465E+00    4.019914E+00
    3.679887E+00    4.059510E+00
    3.683399E+00    4.099448E+00
    3.687004E+00    4.139737E+00
    3.690706E+00    4.180385E+00
    3.694509E+00    4.221401E+00
    3.698416E+00    4.262796E+00
    3.702430E+00    4.304576E+00
    3.706556E+00    4.346752E+00
    3.710794E+00    4.389334E+00
    3.715151E+00    4.432331E+00
    3.719628E+00    4.475756E+00
    3.724229E+00    4.519618E+00
    3.728960E+00    4.563931E+00
    3.733825E+00    4.608705E+00
    3.738828E+00    4.653954E+00
    3.743974E+00    4.699688E+00
    3.749268E+00    4.745922E+00
    3.754716E+00    4.792668E+00
    3.760322E+00    4.839941E+00
    3.766092E+00    4.887755E+00
    3.772033E+00    4.936125E+00
    3.778151E+00    4.985068E+00
    3.784453E+00    5.034599E+00
    3.790947E+00    5.084735E+00
    3.797640E+00    5.135492E+00
    3.804542E+00    5.186887E+00
    3.811659E+00    5.238939E+00
    3.819000E+00    5.291665E+00
    3.826573E+00    5.345085E+00
    3.834387E+00    5.399220E+00
    3.842452E+00    5.454092E+00
    3.850780E+00    5.509724E+00
    3.859380E+00    5.566138E+00
    3.868266E+00    5.623358E+00
    3.877449E+00    5.681408E+00
    3.886944E+00    5.740316E+00
    3.896763E+00    5.800106E+00
    3.906922E+00    5.860807E+00
    3.917435E+00    5.922449E+00
    3.928319E+00    5.985060E+00
    3.939590E+00    6.048675E+00
    3.951268E+00    6.113324E+00
    3.963372E+00    6.179043E+00
    3.975922E+00    6.245869E+00
    3.988940E+00    6.313837E+00
    4.002448E+00    6.382988E+00
    4.016470E+00    6.453363E+00
    4.031032E+00    6.525006E+00
    4.046161E+00    6.597963E+00
    4.061886E+00    6.672283E+00
    4.078240E+00    6.748015E+00
    4.095254E+00    6.825215E+00
    4.112966E+00    6.903937E+00
    4.131411E+00    6.984241E+00
    4.150632E+00    7.066191E+00
    4.170671E+00    7.149855E+00
    4.191576E+00    7.235303E+00
    4.213397E+00    7.322614E+00
    4.236191E+00    7.411870E+00
    4.260021E+00    7.503161E+00
    4.284956E+00    7.596580E+00
    4.311077E+00    7.692231E+00
    4.338476E+00    7.790217E+00
    4.367258E+00    7.890650E+00
    4.397543E+00    7.993635E+00
    4.429462E+00    8.099279E+00
    4.463156E+00    8.207678E+00
    4.498769E+00    8.318925E+00
    4.536446E+00    8.433111E+00
    4.576329E+00    8.550331E+00
    4.618561E+00    8.670694E+00
    4.663295E+00    8.794321E+00
    4.710698E+00    8.921348E+00
    4.760947E+00    9.051920E+00
    4.814232E+00    9.186197E+00
    4.870761E+00    9.324362E+00
    4.930765E+00    9.466625E+00
    4.994515E+00    9.613221E+00
    5.062334E+00    9.764403E+00
    5.134598E+00    9.920430E+00
    5.211732E+00    1.008155E+01
    5.294203E+00    1.024802E+01
    5.382517E+00    1.042009E+01
    5.477233E+00    1.059804E+01
    5.578980E+00    1.078217E+01
    5.688483E+00    1.097279E+01
    5.806580E+00    1.117020E+01
    5.934225E+00    1.137469E+01
    6.072486E+00    1.158649E+01
    6.222540E+00    1.180578E+01
    6.385675E+00    1.203272E+01
    6.563309E+00    1.226740E+01
    6.757026E+00    1.250990E+01
    6.968611E+00    1.276023E+01
    7.200097E+00    1.301831E+01
    7.453798E+00    1.328390E+01
    7.732352E+00    1.355659E+01
    8.038749E+00    1.383567E+01
    8.376366E+00    1.412007E+01
    8.748985E+00    1.440820E+01
    9.160805E+00    1.469784E+01
    9.616419E+00    1.498590E+01
    1.012075E+01    1.526821E+01
    1.067891E+01    1.553921E+01
    1.129595E+01    1.579165E+01
    1.197646E+01    1.601619E+01
    1.272390E+01    1.620118E+01
    1.353973E+01    1.633245E+01
    1.442215E+01    1.639352E+01
    1.536478E+01    1.636641E+01
    1.635535E+01    1.623330E+01
    1.737516E+01    1.597922E+01
    1.840014E+01    1.559544E+01
    1.940436E+01    1.508233E+01
    2.036568E+01    1.444980E+01
    2.127144E+01    1.371318E+01
    2.212030E+01    1.288490E+01
    2.291677E+01    1.196578E+01
    2.365925E+01    1.094238E+01
    2.432800E+01    9.794918E+00
    2.488180E+01    8.513535E+00
    2.526819E+01    7.114073E+00
    2.544367E+01    5.642715E+00
    2.539259E+01    4.164566E+00
    2.513299E+01    2.741723E+00
    2.470553E+01    1.413881E+00
    2.415318E+01    1.926538E-01
    2.350458E+01   -9.289412E-01
    2.276977E+01   -1.960028E+00
    2.194819E+01   -2.899441E+00
    2.104107E+01   -3.733544E+00
    2.006013E+01   -4.442857E+00
    1.902850E+01   -5.011285E+00
    1.797597E+01   -5.432366E+00
    1.693254E+01   -5.710623E+00
    1.592351E+01   -5.859288E+00
    1.496723E+01   -5.896621E+00
    1.407498E+01   -5.842512E+00
    1.325210E+01   -5.716090E+00
    1.249946E+01   -5.534381E+00
    1.181498E+01   -5.311770E+00
    1.119473E+01   -5.059983E+00
    1.063386E+01   -4.788318E+00
    1.012714E+01   -4.504005E+00
    9.669369E+00   -4.212568E+00
    9.255564E+00   -3.918164E+00
    8.881113E+00   -3.623875E+00
    8.541802E+00   -3.331947E+00
    8.233838E+00   -3.043978E+00
    7.953827E+00   -2.761074E+00
    7.698751E+00   -2.483960E+00
    7.465938E+00   -2.213078E+00
    7.253022E+00   -1.948647E+00
    7.057921E+00   -1.690721E+00
    6.878800E+00   -1.439229E+00
    6.714051E+00   -1.194004E+00
    6.562276E+00   -9.548100E-01
    6.422266E+00   -7.213666E-01
    6.292993E+00   -4.933743E-01
    6.173586E+00   -2.705419E-01
    6.063312E+00   -5.261429E-02
    5.961538E+00    1.606063E-01
    5.867680E+00    3.692551E-01
    5.781169E+00    5.734243E-01
    5.701422E+00    7.732005E-01
    5.627851E+00    9.687068E-01
    5.559894E+00    1.160125E+00
    5.497055E+00    1.347691E+00
    5.438926E+00    1.531657E+00
    5.385181E+00    1.712255E+00
