 Vespa-Simulation Mixed Metabolite Output
 This file was generated by Vespa-Simulation. You can learn about and download Vespa here:
https://github.com/vespa-mrs/vespa/tree/main/vespa

 
 Output Path/Filename = /home/stud/casperc/bhome/Project1(DeepFit)/DeepFit-data-generation/DeepFitData_TE_20_lw18_2048p
 Output Loop Values = (1,1,1)  ( Loop 1 = 10, Loop 2 = 10, Loop3 Inactive )
 Output Comment
 ---------------------------------------------------------------------------
 
 
 Experiment Information
 ---------------------------------------------------------------------------
 --- Experiment 18b0168e-f5f0-4bd4-8d52-da93aba06c60 ---
 Name: SyntheticDataSetDeepFitTE20
 Public: False
 Created: 2024-10-08T09:55:07
 Comment (abbr.): 
 PI: Casper Cappelen
 b0: 127.740000
 Peak Search PPM low/high: -15.000000 / 15.000000
 Blend tol. PPM/phase: 0.001500 / 50.000000
 Pulse seq.: 43be13ae-de9a-40a1-9a2d-c872d8bjs100 (PRESS Ideal)
 0 User static parameters: 
 22 Metabolites: 2-hydroxyglutarate, alanine, choline-trimethyl, creatine, ethanolamine, gaba, glucose-beta, glutamate, glutamine, glutathione-glutamate, glutathione-glycine-cysteine, glycine, GPC-pcholine2, lactate, myo-inositol, n-acetylaspartate, NAAG-truncated, phosphocreatine, phosphorylcholine-trimethyl, phosphorylethanolamine, pyruvate, taurine
 22 Simulations: (not shown)
 
 Metabolite Formatting Information
 ---------------------------------------------------------------------------
 Name=2-hydroxyglutarate Abbr=2HG Scale=1.0 Shift=0.0 PPM Start=-3.1207465171441986 PPM End=12.528391440425866
 Name=alanine Abbr=Ala Scale=1.0 Shift=0.0 PPM Start=-3.1207465171441986 PPM End=12.528391440425866
 Name=choline-trimethyl Abbr=Cho Scale=1.0 Shift=0.0 PPM Start=-3.1207465171441986 PPM End=12.528391440425866
 Name=creatine Abbr=Cr Scale=1.0 Shift=0.0 PPM Start=-3.1207465171441986 PPM End=12.528391440425866
 Name=ethanolamine Abbr=ETA Scale=1.0 Shift=0.0 PPM Start=-3.1207465171441986 PPM End=12.528391440425866
 Name=gaba Abbr=GABA Scale=1.0 Shift=0.0 PPM Start=-3.1207465171441986 PPM End=12.528391440425866
 Name=glucose-beta Abbr=Glc Scale=1.0 Shift=0.0 PPM Start=-3.1207465171441986 PPM End=12.528391440425866
 Name=glutamate Abbr=Glu Scale=1.0 Shift=0.0 PPM Start=-3.1207465171441986 PPM End=12.528391440425866
 Name=glutamine Abbr=Gln Scale=1.0 Shift=0.0 PPM Start=-3.1207465171441986 PPM End=12.528391440425866
 Name=glycine Abbr=Gly Scale=1.0 Shift=0.0 PPM Start=-3.1207465171441986 PPM End=12.528391440425866
 Name=GPC-pcholine2 Abbr=GPC Scale=1.0 Shift=0.0 PPM Start=-3.1207465171441986 PPM End=12.528391440425866
 Name=lactate Abbr=Lac Scale=1.0 Shift=0.0 PPM Start=-3.1207465171441986 PPM End=12.528391440425866
 Name=myo-inositol Abbr=mI Scale=1.0 Shift=0.0 PPM Start=-3.1207465171441986 PPM End=12.528391440425866
 Name=n-acetylaspartate Abbr=NAA Scale=1.0 Shift=0.0 PPM Start=-3.1207465171441986 PPM End=12.528391440425866
 Name=NAAG-truncated Abbr=NAAG Scale=1.0 Shift=0.0 PPM Start=-3.1207465171441986 PPM End=12.528391440425866
 Name=phosphocreatine Abbr=PCr Scale=1.0 Shift=0.0 PPM Start=-3.1207465171441986 PPM End=12.528391440425866
 Name=phosphorylcholine-trimethyl Abbr=PCho Scale=1.0 Shift=0.0 PPM Start=-3.1207465171441986 PPM End=12.528391440425866
 Name=phosphorylethanolamine Abbr=PE Scale=1.0 Shift=0.0 PPM Start=-3.1207465171441986 PPM End=12.528391440425866
 Name=pyruvate Abbr=Pyr Scale=1.0 Shift=0.0 PPM Start=-3.1207465171441986 PPM End=12.528391440425866
 Name=taurine Abbr=Tau Scale=1.0 Shift=0.0 PPM Start=-3.1207465171441986 PPM End=12.528391440425866
 Name=glutathione-glutamate+glutathione-glycine-cysteine Abbr=GSH Scale=1.0 Shift=0.0 PPM Start=-3.1207565171441987 PPM End=12.528
   Mixture of [metab*scale] = glutathione-glutamate*1.000000 + glutathione-glycine-cysteine*1.000000
 
 ===========================================================================
 This LCModel format RAW file was created using the 
 Vespa-Simulation spectral simulation program using 
 the following settings and parameters 
 
 Sweep Width = 2000.0 Hz 
 Vector Size = 2048 points 
 Apodization = 18.0 Hz Lorentzian broadening
 B0 Field    = 127.74 MHz 
 Ref Singlet = False
  
 $NMID ID='Glu'
 FMTDAT='(2E16.6)'
 VOLUME=1.0
 TRAMP=1.0
 $END
    4.711103E+00    1.482782E-02
    2.806274E+00    3.459400E+00
   -8.984820E-01    3.872512E+00
   -3.135028E+00    1.256666E+00
   -2.212731E+00   -1.743978E+00
    5.978377E-01   -2.411646E+00
    2.454053E+00   -3.968283E-01
    1.636364E+00    2.170009E+00
   -9.937266E-01    2.811109E+00
   -2.984061E+00    9.622614E-01
   -2.618954E+00   -1.685253E+00
   -3.682245E-01   -2.885571E+00
    1.746981E+00   -1.855903E+00
    2.082019E+00    2.174265E-01
    7.331033E-01    1.456981E+00
   -7.954824E-01    1.007109E+00
   -1.104079E+00   -3.829881E-01
   -9.667414E-02   -1.260066E+00
    1.138919E+00   -8.436291E-01
    1.462028E+00    3.996342E-01
    6.709879E-01    1.355717E+00
   -4.826823E-01    1.317044E+00
   -1.094834E+00    4.970475E-01
   -8.792424E-01   -3.340493E-01
   -2.546834E-01   -5.999866E-01
    1.744252E-01   -3.299882E-01
    1.568785E-01    3.813419E-02
   -1.108390E-01    1.386760E-01
   -2.913413E-01   -4.705761E-02
   -2.299169E-01   -2.956432E-01
   -9.042147E-03   -4.105119E-01
    2.165532E-01   -3.589729E-01
    3.659308E-01   -2.067470E-01
    4.267525E-01   -5.867528E-03
    3.804301E-01    2.157704E-01
    1.998945E-01    3.915811E-01
   -7.107214E-02    4.139889E-01
   -2.845392E-01    2.373879E-01
   -2.904946E-01   -2.855080E-02
   -9.328592E-02   -1.743876E-01
    1.148596E-01   -7.818528E-02
    1.140815E-01    1.569309E-01
   -1.258085E-01    2.751890E-01
   -3.912348E-01    1.065177E-01
   -4.093573E-01   -2.536945E-01
   -1.088860E-01   -5.098254E-01
    2.943171E-01   -4.305594E-01
    4.801055E-01   -6.778548E-02
    3.115823E-01    2.812147E-01
   -4.108797E-02    3.388235E-01
   -2.576062E-01    9.447259E-02
   -1.588751E-01   -1.943808E-01
    1.370258E-01   -2.446960E-01
    3.335999E-01   -5.845033E-03
    2.323354E-01    3.024898E-01
   -9.031779E-02    3.985240E-01
   -3.610749E-01    1.937055E-01
   -3.601565E-01   -1.368911E-01
   -1.104266E-01   -3.218091E-01
    1.591559E-01   -2.344990E-01
    2.276460E-01    9.945442E-03
    7.158250E-02    1.767902E-01
   -1.346652E-01    1.269812E-01
   -1.911540E-01   -7.129978E-02
   -5.025965E-02   -2.228791E-01
    1.558684E-01   -1.888628E-01
    2.472365E-01   -2.650380E-03
    1.559086E-01    1.752387E-01
   -2.759391E-02    2.070267E-01
   -1.487127E-01    9.112829E-02
   -1.262906E-01   -5.398004E-02
   -1.000701E-02   -1.054743E-01
    8.068414E-02   -3.978432E-02
    6.804729E-02    6.257680E-02
   -2.403972E-02    1.011379E-01
   -1.052102E-01    4.421832E-02
   -1.049584E-01   -5.372515E-02
   -2.937049E-02   -1.100933E-01
    5.501397E-02   -8.689990E-02
    8.507348E-02   -1.495297E-02
    5.155019E-02    4.273709E-02
   -3.499546E-03    4.751358E-02
   -3.065299E-02    1.128291E-02
   -1.461468E-02   -2.353338E-02
    2.036238E-02   -2.500349E-02
    3.847500E-02    4.105926E-03
    2.420205E-02    3.533359E-02
   -8.747451E-03    4.265790E-02
   -3.389650E-02    2.300836E-02
   -3.526998E-02   -5.726852E-03
   -1.749555E-02   -2.274584E-02
    2.303033E-03   -2.064703E-02
    1.031080E-02   -7.685900E-03
    5.476652E-03    2.435233E-03
   -3.082991E-03    2.375524E-03
   -5.782741E-03   -4.847075E-03
   -2.292571E-04   -1.077819E-02
    8.460422E-03   -9.456911E-03
    1.317559E-02   -1.653347E-03
    1.068350E-02    6.919896E-03
    3.400259E-03    1.075957E-02
   -3.387399E-03    8.569853E-03
   -5.888877E-03    3.382049E-03
   -4.227724E-03   -5.503343E-04
   -1.457150E-03   -1.168605E-03
   -5.143032E-04    3.162681E-04
   -1.826573E-03    1.154139E-03
   -3.406581E-03   -2.202214E-04
   -3.032697E-03   -2.871917E-03
   -4.091571E-04   -4.438372E-03
    2.602665E-03   -3.430499E-03
    3.753466E-03   -6.041984E-04
    2.452882E-03    1.793411E-03
    2.016583E-04    2.108878E-03
   -9.169603E-04    7.141548E-04
   -2.004629E-04   -5.177842E-04
    1.114001E-03   -1.239772E-04
    1.180244E-03    1.509055E-03
   -5.559003E-04    2.546780E-03
   -2.726277E-03    1.542784E-03
   -3.293837E-03   -1.064702E-03
   -1.501575E-03   -3.243617E-03
    1.336866E-03   -3.194594E-03
    2.970995E-03   -1.008741E-03
    2.231172E-03    1.399984E-03
    5.931569E-05    2.034012E-03
   -1.398907E-03    6.132227E-04
   -7.930865E-04   -1.221732E-03
    1.193313E-03   -1.479668E-03
    2.501113E-03    3.012055E-04
    1.629139E-03    2.601421E-03
   -9.466040E-04    3.302468E-03
   -3.167581E-03    1.625797E-03
   -3.229497E-03   -1.147829E-03
   -1.178705E-03   -2.819002E-03
    1.168628E-03   -2.213593E-03
    1.878060E-03   -1.680873E-04
    6.010004E-04    1.301373E-03
   -1.193990E-03    8.508130E-04
   -1.622793E-03   -1.006915E-03
   -1.174078E-04   -2.421828E-03
    2.070820E-03   -1.917706E-03
    3.012620E-03    2.657343E-04
    1.831139E-03    2.384689E-03
   -5.246345E-04    2.734701E-03
   -2.125602E-03    1.137275E-03
   -1.750654E-03   -9.328481E-04
    7.067325E-05   -1.664063E-03
    1.560459E-03   -4.965831E-04
    1.279729E-03    1.404190E-03
   -5.917727E-04    2.191951E-03
   -2.399365E-03    9.866398E-04
   -2.462941E-03   -1.313241E-03
   -5.783903E-04   -2.774282E-03
    1.743568E-03   -2.109536E-03
    2.548426E-03    1.553549E-04
    1.149746E-03    2.076195E-03
   -1.213022E-03    1.957893E-03
   -2.400051E-03   -1.265987E-04
   -1.247662E-03   -2.324483E-03
    1.338124E-03   -2.585847E-03
    3.092115E-03   -5.043806E-04
    2.365614E-03    2.224656E-03
   -3.471745E-04    3.222829E-03
   -2.740151E-03    1.543939E-03
   -2.688162E-03   -1.394710E-03
   -1.817829E-04   -2.977887E-03
    2.561698E-03   -1.707220E-03
    3.004831E-03    1.384788E-03
    5.800739E-04    3.552690E-03
   -2.705978E-03    2.749315E-03
   -3.976493E-03   -4.948148E-04
   -2.040367E-03   -3.452160E-03
    1.487177E-03   -3.574289E-03
