 Vespa-Simulation Mixed Metabolite Output
 This file was generated by Vespa-Simulation. You can learn about and download Vespa here:
https://github.com/vespa-mrs/vespa/tree/main/vespa

 
 Output Path/Filename = /home/stud/casperc/bhome/Project1(DeepFit)/DeepFit-data-generation/DeepFitData_TE_20_lw18_2048p
 Output Loop Values = (1,1,1)  ( Loop 1 = 10, Loop 2 = 10, Loop3 Inactive )
 Output Comment
 ---------------------------------------------------------------------------
 
 
 Experiment Information
 ---------------------------------------------------------------------------
 --- Experiment 18b0168e-f5f0-4bd4-8d52-da93aba06c60 ---
 Name: SyntheticDataSetDeepFitTE20
 Public: False
 Created: 2024-10-08T09:55:07
 Comment (abbr.): 
 PI: Casper Cappelen
 b0: 127.740000
 Peak Search PPM low/high: -15.000000 / 15.000000
 Blend tol. PPM/phase: 0.001500 / 50.000000
 Pulse seq.: 43be13ae-de9a-40a1-9a2d-c872d8bjs100 (PRESS Ideal)
 0 User static parameters: 
 22 Metabolites: 2-hydroxyglutarate, alanine, choline-trimethyl, creatine, ethanolamine, gaba, glucose-beta, glutamate, glutamine, glutathione-glutamate, glutathione-glycine-cysteine, glycine, GPC-pcholine2, lactate, myo-inositol, n-acetylaspartate, NAAG-truncated, phosphocreatine, phosphorylcholine-trimethyl, phosphorylethanolamine, pyruvate, taurine
 22 Simulations: (not shown)
 
 Metabolite Formatting Information
 ---------------------------------------------------------------------------
 Name=2-hydroxyglutarate Abbr=2HG Scale=1.0 Shift=0.0 PPM Start=-3.1207465171441986 PPM End=12.528391440425866
 Name=alanine Abbr=Ala Scale=1.0 Shift=0.0 PPM Start=-3.1207465171441986 PPM End=12.528391440425866
 Name=choline-trimethyl Abbr=Cho Scale=1.0 Shift=0.0 PPM Start=-3.1207465171441986 PPM End=12.528391440425866
 Name=creatine Abbr=Cr Scale=1.0 Shift=0.0 PPM Start=-3.1207465171441986 PPM End=12.528391440425866
 Name=ethanolamine Abbr=ETA Scale=1.0 Shift=0.0 PPM Start=-3.1207465171441986 PPM End=12.528391440425866
 Name=gaba Abbr=GABA Scale=1.0 Shift=0.0 PPM Start=-3.1207465171441986 PPM End=12.528391440425866
 Name=glucose-beta Abbr=Glc Scale=1.0 Shift=0.0 PPM Start=-3.1207465171441986 PPM End=12.528391440425866
 Name=glutamate Abbr=Glu Scale=1.0 Shift=0.0 PPM Start=-3.1207465171441986 PPM End=12.528391440425866
 Name=glutamine Abbr=Gln Scale=1.0 Shift=0.0 PPM Start=-3.1207465171441986 PPM End=12.528391440425866
 Name=glycine Abbr=Gly Scale=1.0 Shift=0.0 PPM Start=-3.1207465171441986 PPM End=12.528391440425866
 Name=GPC-pcholine2 Abbr=GPC Scale=1.0 Shift=0.0 PPM Start=-3.1207465171441986 PPM End=12.528391440425866
 Name=lactate Abbr=Lac Scale=1.0 Shift=0.0 PPM Start=-3.1207465171441986 PPM End=12.528391440425866
 Name=myo-inositol Abbr=mI Scale=1.0 Shift=0.0 PPM Start=-3.1207465171441986 PPM End=12.528391440425866
 Name=n-acetylaspartate Abbr=NAA Scale=1.0 Shift=0.0 PPM Start=-3.1207465171441986 PPM End=12.528391440425866
 Name=NAAG-truncated Abbr=NAAG Scale=1.0 Shift=0.0 PPM Start=-3.1207465171441986 PPM End=12.528391440425866
 Name=phosphocreatine Abbr=PCr Scale=1.0 Shift=0.0 PPM Start=-3.1207465171441986 PPM End=12.528391440425866
 Name=phosphorylcholine-trimethyl Abbr=PCho Scale=1.0 Shift=0.0 PPM Start=-3.1207465171441986 PPM End=12.528391440425866
 Name=phosphorylethanolamine Abbr=PE Scale=1.0 Shift=0.0 PPM Start=-3.1207465171441986 PPM End=12.528391440425866
 Name=pyruvate Abbr=Pyr Scale=1.0 Shift=0.0 PPM Start=-3.1207465171441986 PPM End=12.528391440425866
 Name=taurine Abbr=Tau Scale=1.0 Shift=0.0 PPM Start=-3.1207465171441986 PPM End=12.528391440425866
 Name=glutathione-glutamate+glutathione-glycine-cysteine Abbr=GSH Scale=1.0 Shift=0.0 PPM Start=-3.1207565171441987 PPM End=12.528
   Mixture of [metab*scale] = glutathione-glutamate*1.000000 + glutathione-glycine-cysteine*1.000000
 
 ===========================================================================
 This LCModel format RAW file was created using the 
 Vespa-Simulation spectral simulation program using 
 the following settings and parameters 
 
 Sweep Width = 2000.0 Hz 
 Vector Size = 2048 points 
 Apodization = 18.0 Hz Lorentzian broadening
 B0 Field    = 127.74 MHz 
 Ref Singlet = False
  
 This data has been FFTd to be in the FREQUENCY domain
 
 $NMID ID='Glu'
 FMTDAT='(2E16.6)'
 VOLUME=1.0
 TRAMP=1.0
 $END
    2.636190E+00    5.791982E+00
    2.639820E+00    5.823366E+00
    2.643531E+00    5.855113E+00
    2.647327E+00    5.887231E+00
    2.651210E+00    5.919728E+00
    2.655183E+00    5.952611E+00
    2.659248E+00    5.985890E+00
    2.663409E+00    6.019572E+00
    2.667668E+00    6.053667E+00
    2.672030E+00    6.088183E+00
    2.676497E+00    6.123131E+00
    2.681074E+00    6.158519E+00
    2.685763E+00    6.194357E+00
    2.690569E+00    6.230655E+00
    2.695496E+00    6.267425E+00
    2.700547E+00    6.304678E+00
    2.705727E+00    6.342425E+00
    2.711040E+00    6.380678E+00
    2.716493E+00    6.419449E+00
    2.722090E+00    6.458750E+00
    2.727837E+00    6.498595E+00
    2.733739E+00    6.538996E+00
    2.739800E+00    6.579968E+00
    2.746028E+00    6.621525E+00
    2.752429E+00    6.663682E+00
    2.759008E+00    6.706456E+00
    2.765775E+00    6.749863E+00
    2.772737E+00    6.793919E+00
    2.779902E+00    6.838640E+00
    2.787277E+00    6.884046E+00
    2.794873E+00    6.930152E+00
    2.802696E+00    6.976980E+00
    2.810757E+00    7.024549E+00
    2.819065E+00    7.072880E+00
    2.827631E+00    7.121995E+00
    2.836466E+00    7.171917E+00
    2.845582E+00    7.222669E+00
    2.854992E+00    7.274276E+00
    2.864709E+00    7.326764E+00
    2.874748E+00    7.380157E+00
    2.885123E+00    7.434484E+00
    2.895849E+00    7.489772E+00
    2.906943E+00    7.546051E+00
    2.918422E+00    7.603353E+00
    2.930302E+00    7.661709E+00
    2.942605E+00    7.721155E+00
    2.955350E+00    7.781727E+00
    2.968561E+00    7.843461E+00
    2.982260E+00    7.906396E+00
    2.996473E+00    7.970572E+00
    3.011226E+00    8.036033E+00
    3.026548E+00    8.102821E+00
    3.042467E+00    8.170984E+00
    3.059016E+00    8.240571E+00
    3.076228E+00    8.311632E+00
    3.094142E+00    8.384221E+00
    3.112794E+00    8.458396E+00
    3.132227E+00    8.534214E+00
    3.152485E+00    8.611738E+00
    3.173615E+00    8.691034E+00
    3.195667E+00    8.772172E+00
    3.218698E+00    8.855223E+00
    3.242765E+00    8.940266E+00
    3.267932E+00    9.027381E+00
    3.294266E+00    9.116655E+00
    3.321840E+00    9.208179E+00
    3.350733E+00    9.302050E+00
    3.381029E+00    9.398371E+00
    3.412821E+00    9.497254E+00
    3.446209E+00    9.598816E+00
    3.481304E+00    9.703187E+00
    3.518227E+00    9.810501E+00
    3.557114E+00    9.920907E+00
    3.598117E+00    1.003456E+01
    3.641406E+00    1.015163E+01
    3.687176E+00    1.027230E+01
    3.735648E+00    1.039674E+01
    3.787069E+00    1.052514E+01
    3.841715E+00    1.065768E+01
    3.899882E+00    1.079455E+01
    3.961887E+00    1.093591E+01
    4.028062E+00    1.108195E+01
    4.098762E+00    1.123287E+01
    4.174378E+00    1.138889E+01
    4.255346E+00    1.155024E+01
    4.342153E+00    1.171715E+01
    4.435343E+00    1.188987E+01
    4.535513E+00    1.206864E+01
    4.643318E+00    1.225372E+01
    4.759479E+00    1.244537E+01
    4.884795E+00    1.264386E+01
    5.020161E+00    1.284950E+01
    5.166606E+00    1.306260E+01
    5.325320E+00    1.328350E+01
    5.497692E+00    1.351251E+01
    5.685333E+00    1.374988E+01
    5.890086E+00    1.399576E+01
    6.114032E+00    1.425015E+01
    6.359494E+00    1.451290E+01
    6.629060E+00    1.478369E+01
    6.925625E+00    1.506196E+01
    7.252456E+00    1.534688E+01
    7.613258E+00    1.563725E+01
    8.012237E+00    1.593133E+01
    8.454129E+00    1.622662E+01
    8.944173E+00    1.651959E+01
    9.487998E+00    1.680537E+01
    1.009139E+01    1.707735E+01
    1.075991E+01    1.732686E+01
    1.149834E+01    1.754281E+01
    1.230991E+01    1.771145E+01
    1.319516E+01    1.781633E+01
    1.415065E+01    1.783871E+01
    1.516742E+01    1.775868E+01
    1.622984E+01    1.755726E+01
    1.731544E+01    1.721958E+01
    1.839680E+01    1.673836E+01
    1.944587E+01    1.611624E+01
    2.043987E+01    1.536485E+01
    2.136570E+01    1.449931E+01
    2.221924E+01    1.353013E+01
    2.299788E+01    1.245744E+01
    2.368987E+01    1.127296E+01
    2.426795E+01    9.970491E+00
    2.469309E+01    8.559224E+00
    2.492776E+01    7.070847E+00
    2.495135E+01    5.554911E+00
    2.476789E+01    4.064387E+00
    2.440162E+01    2.640122E+00
    2.388338E+01    1.303576E+00
    2.323731E+01    6.127135E-02
    2.247598E+01   -1.083704E+00
    2.160545E+01   -2.121921E+00
    2.063480E+01   -3.035746E+00
    1.958298E+01   -3.805013E+00
    1.847894E+01   -4.415072E+00
    1.735667E+01   -4.862063E+00
    1.624891E+01   -5.153569E+00
    1.518243E+01   -5.305865E+00
    1.417617E+01   -5.339944E+00
    1.324134E+01   -5.277991E+00
    1.238284E+01   -5.140982E+00
    1.160089E+01   -4.947391E+00
    1.089263E+01   -4.712723E+00
    1.025330E+01   -4.449527E+00
    9.677165E+00   -4.167663E+00
    9.158169E+00   -3.874663E+00
    8.690339E+00   -3.576132E+00
    8.268071E+00   -3.276136E+00
    7.886272E+00   -2.977551E+00
    7.540408E+00   -2.682369E+00
    7.226497E+00   -2.391932E+00
    6.941066E+00   -2.107116E+00
    6.681105E+00   -1.828466E+00
    6.444007E+00   -1.556295E+00
    6.227521E+00   -1.290770E+00
    6.029690E+00   -1.031975E+00
    5.848792E+00   -7.799505E-01
    5.683273E+00   -5.347163E-01
    5.531702E+00   -2.962634E-01
    5.392740E+00   -6.453138E-02
    5.265141E+00    1.606120E-01
    5.147768E+00    3.793752E-01
    5.039610E+00    5.920271E-01
    4.939785E+00    7.988695E-01
    4.847532E+00    1.000211E+00
    4.762189E+00    1.196348E+00
    4.683173E+00    1.387552E+00
    4.609957E+00    1.574071E+00
    4.542052E+00    1.756135E+00
    4.478998E+00    1.933970E+00
    4.420363E+00    2.107810E+00
