 Vespa-Simulation Mixed Metabolite Output
 This file was generated by Vespa-Simulation. You can learn about and download Vespa here:
https://github.com/vespa-mrs/vespa/tree/main/vespa

 
 Output Path/Filename = /home/stud/casperc/bhome/Project1(DeepFit)/DeepFit-data-generation/DeepFitData_TE_20_lw18_2048p
 Output Loop Values = (1,1,1)  ( Loop 1 = 10, Loop 2 = 10, Loop3 Inactive )
 Output Comment
 ---------------------------------------------------------------------------
 
 
 Experiment Information
 ---------------------------------------------------------------------------
 --- Experiment 18b0168e-f5f0-4bd4-8d52-da93aba06c60 ---
 Name: SyntheticDataSetDeepFitTE20
 Public: False
 Created: 2024-10-08T09:55:07
 Comment (abbr.): 
 PI: Casper Cappelen
 b0: 127.740000
 Peak Search PPM low/high: -15.000000 / 15.000000
 Blend tol. PPM/phase: 0.001500 / 50.000000
 Pulse seq.: 43be13ae-de9a-40a1-9a2d-c872d8bjs100 (PRESS Ideal)
 0 User static parameters: 
 22 Metabolites: 2-hydroxyglutarate, alanine, choline-trimethyl, creatine, ethanolamine, gaba, glucose-beta, glutamate, glutamine, glutathione-glutamate, glutathione-glycine-cysteine, glycine, GPC-pcholine2, lactate, myo-inositol, n-acetylaspartate, NAAG-truncated, phosphocreatine, phosphorylcholine-trimethyl, phosphorylethanolamine, pyruvate, taurine
 22 Simulations: (not shown)
 
 Metabolite Formatting Information
 ---------------------------------------------------------------------------
 Name=2-hydroxyglutarate Abbr=2HG Scale=1.0 Shift=0.0 PPM Start=-3.1207465171441986 PPM End=12.528391440425866
 Name=alanine Abbr=Ala Scale=1.0 Shift=0.0 PPM Start=-3.1207465171441986 PPM End=12.528391440425866
 Name=choline-trimethyl Abbr=Cho Scale=1.0 Shift=0.0 PPM Start=-3.1207465171441986 PPM End=12.528391440425866
 Name=creatine Abbr=Cr Scale=1.0 Shift=0.0 PPM Start=-3.1207465171441986 PPM End=12.528391440425866
 Name=ethanolamine Abbr=ETA Scale=1.0 Shift=0.0 PPM Start=-3.1207465171441986 PPM End=12.528391440425866
 Name=gaba Abbr=GABA Scale=1.0 Shift=0.0 PPM Start=-3.1207465171441986 PPM End=12.528391440425866
 Name=glucose-beta Abbr=Glc Scale=1.0 Shift=0.0 PPM Start=-3.1207465171441986 PPM End=12.528391440425866
 Name=glutamate Abbr=Glu Scale=1.0 Shift=0.0 PPM Start=-3.1207465171441986 PPM End=12.528391440425866
 Name=glutamine Abbr=Gln Scale=1.0 Shift=0.0 PPM Start=-3.1207465171441986 PPM End=12.528391440425866
 Name=glycine Abbr=Gly Scale=1.0 Shift=0.0 PPM Start=-3.1207465171441986 PPM End=12.528391440425866
 Name=GPC-pcholine2 Abbr=GPC Scale=1.0 Shift=0.0 PPM Start=-3.1207465171441986 PPM End=12.528391440425866
 Name=lactate Abbr=Lac Scale=1.0 Shift=0.0 PPM Start=-3.1207465171441986 PPM End=12.528391440425866
 Name=myo-inositol Abbr=mI Scale=1.0 Shift=0.0 PPM Start=-3.1207465171441986 PPM End=12.528391440425866
 Name=n-acetylaspartate Abbr=NAA Scale=1.0 Shift=0.0 PPM Start=-3.1207465171441986 PPM End=12.528391440425866
 Name=NAAG-truncated Abbr=NAAG Scale=1.0 Shift=0.0 PPM Start=-3.1207465171441986 PPM End=12.528391440425866
 Name=phosphocreatine Abbr=PCr Scale=1.0 Shift=0.0 PPM Start=-3.1207465171441986 PPM End=12.528391440425866
 Name=phosphorylcholine-trimethyl Abbr=PCho Scale=1.0 Shift=0.0 PPM Start=-3.1207465171441986 PPM End=12.528391440425866
 Name=phosphorylethanolamine Abbr=PE Scale=1.0 Shift=0.0 PPM Start=-3.1207465171441986 PPM End=12.528391440425866
 Name=pyruvate Abbr=Pyr Scale=1.0 Shift=0.0 PPM Start=-3.1207465171441986 PPM End=12.528391440425866
 Name=taurine Abbr=Tau Scale=1.0 Shift=0.0 PPM Start=-3.1207465171441986 PPM End=12.528391440425866
 Name=glutathione-glutamate+glutathione-glycine-cysteine Abbr=GSH Scale=1.0 Shift=0.0 PPM Start=-3.1207565171441987 PPM End=12.528
   Mixture of [metab*scale] = glutathione-glutamate*1.000000 + glutathione-glycine-cysteine*1.000000
 
 ===========================================================================
 This LCModel format RAW file was created using the 
 Vespa-Simulation spectral simulation program using 
 the following settings and parameters 
 
 Sweep Width = 2000.0 Hz 
 Vector Size = 2048 points 
 Apodization = 18.0 Hz Lorentzian broadening
 B0 Field    = 127.74 MHz 
 Ref Singlet = False
  
 $NMID ID='Gly'
 FMTDAT='(2E16.6)'
 VOLUME=1.0
 TRAMP=1.0
 $END
    2.000000E+00   -2.775558E-17
    1.740149E+00    8.671580E-01
    1.138078E+00    1.508984E+00
    3.359496E-01    1.806376E+00
   -4.909060E-01    1.717342E+00
   -1.171727E+00    1.281370E+00
   -1.575065E+00    6.068509E-01
   -1.633542E+00   -1.549102E-01
   -1.354137E+00   -8.430534E-01
   -8.126737E-01   -1.320642E+00
   -1.344833E-01   -1.501416E+00
    5.339723E-01   -1.364652E+00
    1.056281E+00   -9.558297E-01
    1.333471E+00   -3.736614E-01
    1.322231E+00    2.530523E-01
    1.040723E+00    7.934628E-01
    5.614739E-01    1.141610E+00
   -6.454393E-03    1.236729E+00
   -5.418287E-01    1.073251E+00
   -9.367709E-01    6.988826E-01
   -1.118082E+00    2.019154E-01
   -1.060360E+00   -3.090957E-01
   -7.885749E-01   -7.286867E-01
   -3.701753E-01   -9.759214E-01
    1.010593E-01   -1.009624E+00
    5.256815E-01   -8.346311E-01
    8.192609E-01   -4.982666E-01
    9.288559E-01   -7.831433E-02
    8.421292E-01    3.345935E-01
    5.876467E-01    6.562472E-01
    2.267611E-01    8.257753E-01
   -1.607401E-01    8.168049E-01
   -4.940099E-01    6.409840E-01
   -7.077405E-01    3.435160E-01
   -7.647283E-01   -7.982334E-03
   -6.619118E-01   -3.385112E-01
   -4.291449E-01   -5.815183E-01
   -1.212490E-01   -6.920334E-01
    1.945514E-01   -6.546929E-01
    4.531388E-01   -4.852750E-01
    6.046682E-01   -2.257578E-01
    6.239897E-01    6.574975E-02
    5.144119E-01    3.277528E-01
    3.054664E-01    5.082098E-01
    4.543306E-02    5.746240E-01
   -2.096184E-01    5.196629E-01
   -4.076964E-01    3.612620E-01
   -5.113610E-01    1.375595E-01
   -5.045643E-01   -1.020320E-01
   -3.947716E-01   -3.075415E-01
   -2.101341E-01   -4.387502E-01
    7.397572E-03   -4.728551E-01
    2.114594E-01   -4.082103E-01
    3.609752E-01   -2.634913E-01
    4.283201E-01   -7.274273E-02
    4.042110E-01    1.224165E-01
    2.986144E-01    2.817710E-01
    1.376492E-01    3.746338E-01
   -4.266587E-02    3.856415E-01
   -2.043308E-01    3.170363E-01
   -3.152421E-01    1.872537E-01
   -3.554736E-01    2.623976E-02
   -3.206664E-01   -1.312933E-01
   -2.220758E-01   -2.532708E-01
   -8.340737E-02   -3.166525E-01
    6.471710E-02   -3.116763E-01
    1.914467E-01   -2.431202E-01
    2.719856E-01   -1.285235E-01
    2.923728E-01    6.104317E-03
    2.517421E-01    1.320730E-01
    1.617687E-01    2.240646E-01
    4.359925E-02    2.650927E-01
   -7.699911E-02    2.495557E-01
   -1.751984E-01    1.837456E-01
   -2.321045E-01    8.390836E-02
   -2.383289E-01   -2.763079E-02
   -1.953863E-01   -1.273714E-01
   -1.147737E-01   -1.955388E-01
   -1.507855E-02   -2.198969E-01
    8.222464E-02   -1.978639E-01
    1.573285E-01   -1.365085E-01
    1.960751E-01   -5.055689E-02
    1.925201E-01    4.102717E-02
    1.497207E-01    1.191664E-01
    7.859887E-02    1.685999E-01
   -4.715810E-03    1.807733E-01
   -8.248374E-02    1.552410E-01
   -1.390743E-01    9.931078E-02
   -1.640643E-01    2.610692E-02
   -1.540672E-01   -4.842094E-02
   -1.130549E-01   -1.089309E-01
   -5.113883E-02   -1.437952E-01
    1.785306E-02   -1.472852E-01
    7.939412E-02   -1.204078E-01
    1.212837E-01   -7.034255E-02
    1.360250E-01   -8.616217E-03
    1.220873E-01    5.148169E-02
    8.390298E-02    9.772801E-02
    3.063144E-02    1.214086E-01
   -2.598945E-02    1.189155E-01
   -7.417269E-02    9.219637E-02
   -1.045105E-01    4.805724E-02
   -1.117686E-01   -3.497980E-03
   -9.573001E-02   -5.150471E-02
   -6.096027E-02   -8.631990E-02
   -1.561549E-02   -1.015355E-01
    3.043772E-02   -9.511382E-02
    6.772294E-02   -6.955848E-02
    8.908331E-02   -3.115718E-02
    9.101846E-02    1.151379E-02
    7.420034E-02    4.948207E-02
    4.310491E-02    7.522512E-02
    4.887852E-03    8.414088E-02
   -3.222744E-02    7.532875E-02
   -6.070161E-02    5.156806E-02
   -7.517387E-02    1.854857E-02
   -7.344949E-02   -1.645373E-02
   -5.677220E-02   -4.616253E-02
   -2.938048E-02   -6.478029E-02
    2.524654E-03   -6.910243E-02
    3.215684E-02   -5.903026E-02
    5.357340E-02   -3.741782E-02
    6.283648E-02   -9.327543E-03
    5.871652E-02    1.912934E-02
    4.279450E-02    4.210136E-02
    1.897974E-02    5.518625E-02
   -7.414210E-03    5.624532E-02
   -3.083803E-02    4.572275E-02
   -4.665600E-02    2.641115E-02
   -5.204540E-02    2.753032E-03
   -4.647690E-02   -2.017078E-02
   -3.169246E-02   -3.770171E-02
   -1.122780E-02   -4.654457E-02
    1.041205E-02   -4.536531E-02
    2.872894E-02   -3.495654E-02
    4.015288E-02   -1.795825E-02
    4.272230E-02    1.784736E-03
    3.639871E-02    2.007466E-02
    2.296540E-02    3.324832E-02
    5.565557E-03    3.888588E-02
   -1.201791E-02    3.624664E-02
   -2.617244E-02    2.632637E-02
   -3.418662E-02    1.155784E-02
   -3.475610E-02   -4.766663E-03
   -2.817458E-02   -1.921556E-02
   -1.618232E-02   -2.893500E-02
   -1.533984E-03   -3.219193E-02
    1.262327E-02   -2.867439E-02
    2.341594E-02   -1.947551E-02
    2.881783E-02   -6.792277E-03
    2.801859E-02    6.585216E-03
    2.152389E-02    1.787690E-02
    1.097617E-02    2.488663E-02
   -1.240427E-03    2.641225E-02
   -1.253122E-02    2.244271E-02
   -2.063389E-02    1.409341E-02
   -2.406365E-02    3.315727E-03
   -2.237474E-02   -7.548719E-03
   -1.619461E-02   -1.626929E-02
   -7.037487E-03   -2.117681E-02
    3.058836E-03   -2.147669E-02
    1.197338E-02   -1.735998E-02
    1.794473E-02   -9.912949E-03
    1.991130E-02   -8.444040E-04
    1.769037E-02    7.898553E-03
    1.196720E-02    1.454259E-02
    4.107822E-03    1.784168E-02
   -4.161789E-03    1.730462E-02
   -1.112408E-02    1.325177E-02
   -1.542452E-02    6.706749E-03
   -1.632838E-02   -8.524927E-04
   -1.383722E-02   -7.821471E-03
   -8.648103E-03   -1.280486E-02
   -1.973270E-03   -1.489073E-02
