 Vespa-Simulation Mixed Metabolite Output
 This file was generated by Vespa-Simulation. You can learn about and download Vespa here:
https://github.com/vespa-mrs/vespa/tree/main/vespa

 
 Output Path/Filename = /home/stud/casperc/bhome/Project1(DeepFit)/DeepFit-data-generation/DeepFitData_TE_20_lw18_2048p
 Output Loop Values = (1,1,1)  ( Loop 1 = 10, Loop 2 = 10, Loop3 Inactive )
 Output Comment
 ---------------------------------------------------------------------------
 
 
 Experiment Information
 ---------------------------------------------------------------------------
 --- Experiment 18b0168e-f5f0-4bd4-8d52-da93aba06c60 ---
 Name: SyntheticDataSetDeepFitTE20
 Public: False
 Created: 2024-10-08T09:55:07
 Comment (abbr.): 
 PI: Casper Cappelen
 b0: 127.740000
 Peak Search PPM low/high: -15.000000 / 15.000000
 Blend tol. PPM/phase: 0.001500 / 50.000000
 Pulse seq.: 43be13ae-de9a-40a1-9a2d-c872d8bjs100 (PRESS Ideal)
 0 User static parameters: 
 22 Metabolites: 2-hydroxyglutarate, alanine, choline-trimethyl, creatine, ethanolamine, gaba, glucose-beta, glutamate, glutamine, glutathione-glutamate, glutathione-glycine-cysteine, glycine, GPC-pcholine2, lactate, myo-inositol, n-acetylaspartate, NAAG-truncated, phosphocreatine, phosphorylcholine-trimethyl, phosphorylethanolamine, pyruvate, taurine
 22 Simulations: (not shown)
 
 Metabolite Formatting Information
 ---------------------------------------------------------------------------
 Name=2-hydroxyglutarate Abbr=2HG Scale=1.0 Shift=0.0 PPM Start=-3.1207465171441986 PPM End=12.528391440425866
 Name=alanine Abbr=Ala Scale=1.0 Shift=0.0 PPM Start=-3.1207465171441986 PPM End=12.528391440425866
 Name=choline-trimethyl Abbr=Cho Scale=1.0 Shift=0.0 PPM Start=-3.1207465171441986 PPM End=12.528391440425866
 Name=creatine Abbr=Cr Scale=1.0 Shift=0.0 PPM Start=-3.1207465171441986 PPM End=12.528391440425866
 Name=ethanolamine Abbr=ETA Scale=1.0 Shift=0.0 PPM Start=-3.1207465171441986 PPM End=12.528391440425866
 Name=gaba Abbr=GABA Scale=1.0 Shift=0.0 PPM Start=-3.1207465171441986 PPM End=12.528391440425866
 Name=glucose-beta Abbr=Glc Scale=1.0 Shift=0.0 PPM Start=-3.1207465171441986 PPM End=12.528391440425866
 Name=glutamate Abbr=Glu Scale=1.0 Shift=0.0 PPM Start=-3.1207465171441986 PPM End=12.528391440425866
 Name=glutamine Abbr=Gln Scale=1.0 Shift=0.0 PPM Start=-3.1207465171441986 PPM End=12.528391440425866
 Name=glycine Abbr=Gly Scale=1.0 Shift=0.0 PPM Start=-3.1207465171441986 PPM End=12.528391440425866
 Name=GPC-pcholine2 Abbr=GPC Scale=1.0 Shift=0.0 PPM Start=-3.1207465171441986 PPM End=12.528391440425866
 Name=lactate Abbr=Lac Scale=1.0 Shift=0.0 PPM Start=-3.1207465171441986 PPM End=12.528391440425866
 Name=myo-inositol Abbr=mI Scale=1.0 Shift=0.0 PPM Start=-3.1207465171441986 PPM End=12.528391440425866
 Name=n-acetylaspartate Abbr=NAA Scale=1.0 Shift=0.0 PPM Start=-3.1207465171441986 PPM End=12.528391440425866
 Name=NAAG-truncated Abbr=NAAG Scale=1.0 Shift=0.0 PPM Start=-3.1207465171441986 PPM End=12.528391440425866
 Name=phosphocreatine Abbr=PCr Scale=1.0 Shift=0.0 PPM Start=-3.1207465171441986 PPM End=12.528391440425866
 Name=phosphorylcholine-trimethyl Abbr=PCho Scale=1.0 Shift=0.0 PPM Start=-3.1207465171441986 PPM End=12.528391440425866
 Name=phosphorylethanolamine Abbr=PE Scale=1.0 Shift=0.0 PPM Start=-3.1207465171441986 PPM End=12.528391440425866
 Name=pyruvate Abbr=Pyr Scale=1.0 Shift=0.0 PPM Start=-3.1207465171441986 PPM End=12.528391440425866
 Name=taurine Abbr=Tau Scale=1.0 Shift=0.0 PPM Start=-3.1207465171441986 PPM End=12.528391440425866
 Name=glutathione-glutamate+glutathione-glycine-cysteine Abbr=GSH Scale=1.0 Shift=0.0 PPM Start=-3.1207565171441987 PPM End=12.528
   Mixture of [metab*scale] = glutathione-glutamate*1.000000 + glutathione-glycine-cysteine*1.000000
 
 ===========================================================================
 This LCModel format RAW file was created using the 
 Vespa-Simulation spectral simulation program using 
 the following settings and parameters 
 
 Sweep Width = 2000.0 Hz 
 Vector Size = 2048 points 
 Apodization = 18.0 Hz Lorentzian broadening
 B0 Field    = 127.74 MHz 
 Ref Singlet = False
  
 This data has been FFTd to be in the FREQUENCY domain
 
 $NMID ID='Gly'
 FMTDAT='(2E16.6)'
 VOLUME=1.0
 TRAMP=1.0
 $END
    1.268356E+00    4.232716E+00
    1.271878E+00    4.261809E+00
    1.275471E+00    4.291282E+00
    1.279136E+00    4.321142E+00
    1.282876E+00    4.351397E+00
    1.286693E+00    4.382055E+00
    1.290588E+00    4.413124E+00
    1.294564E+00    4.444614E+00
    1.298623E+00    4.476532E+00
    1.302768E+00    4.508888E+00
    1.307000E+00    4.541691E+00
    1.311323E+00    4.574950E+00
    1.315739E+00    4.608676E+00
    1.320251E+00    4.642878E+00
    1.324862E+00    4.677567E+00
    1.329576E+00    4.712752E+00
    1.334394E+00    4.748445E+00
    1.339321E+00    4.784656E+00
    1.344358E+00    4.821398E+00
    1.349511E+00    4.858681E+00
    1.354781E+00    4.896519E+00
    1.360172E+00    4.934923E+00
    1.365689E+00    4.973906E+00
    1.371335E+00    5.013483E+00
    1.377114E+00    5.053667E+00
    1.383030E+00    5.094472E+00
    1.389088E+00    5.135912E+00
    1.395292E+00    5.178004E+00
    1.401647E+00    5.220762E+00
    1.408158E+00    5.264203E+00
    1.414831E+00    5.308343E+00
    1.421671E+00    5.353199E+00
    1.428684E+00    5.398789E+00
    1.435874E+00    5.445131E+00
    1.443249E+00    5.492243E+00
    1.450814E+00    5.540146E+00
    1.458576E+00    5.588858E+00
    1.466542E+00    5.638402E+00
    1.474718E+00    5.688799E+00
    1.483113E+00    5.740071E+00
    1.491734E+00    5.792241E+00
    1.500589E+00    5.845334E+00
    1.509688E+00    5.899373E+00
    1.519038E+00    5.954386E+00
    1.528651E+00    6.010399E+00
    1.538535E+00    6.067438E+00
    1.548701E+00    6.125533E+00
    1.559161E+00    6.184712E+00
    1.569924E+00    6.245006E+00
    1.581004E+00    6.306447E+00
    1.592412E+00    6.369068E+00
    1.604161E+00    6.432903E+00
    1.616265E+00    6.497987E+00
    1.628737E+00    6.564359E+00
    1.641594E+00    6.632056E+00
    1.654850E+00    6.701119E+00
    1.668524E+00    6.771590E+00
    1.682632E+00    6.843512E+00
    1.697194E+00    6.916930E+00
    1.712229E+00    6.991891E+00
    1.727758E+00    7.068443E+00
    1.743803E+00    7.146637E+00
    1.760385E+00    7.226527E+00
    1.777530E+00    7.308167E+00
    1.795262E+00    7.391616E+00
    1.813608E+00    7.476935E+00
    1.832598E+00    7.564186E+00
    1.852262E+00    7.653437E+00
    1.872631E+00    7.744755E+00
    1.893741E+00    7.838213E+00
    1.915627E+00    7.933887E+00
    1.938328E+00    8.031854E+00
    1.961885E+00    8.132199E+00
    1.986340E+00    8.235006E+00
    2.011740E+00    8.340368E+00
    2.038134E+00    8.448379E+00
    2.065573E+00    8.559140E+00
    2.094115E+00    8.672755E+00
    2.123817E+00    8.789335E+00
    2.154744E+00    8.908996E+00
    2.186964E+00    9.031859E+00
    2.220549E+00    9.158053E+00
    2.255577E+00    9.287714E+00
    2.292131E+00    9.420982E+00
    2.330302E+00    9.558009E+00
    2.370184E+00    9.698952E+00
    2.411881E+00    9.843978E+00
    2.455504E+00    9.993263E+00
    2.501173E+00    1.014699E+01
    2.549016E+00    1.030537E+01
    2.599172E+00    1.046859E+01
    2.651792E+00    1.063689E+01
    2.707038E+00    1.081049E+01
    2.765086E+00    1.098964E+01
    2.826128E+00    1.117461E+01
    2.890371E+00    1.136567E+01
    2.958039E+00    1.156313E+01
    3.029380E+00    1.176729E+01
    3.104661E+00    1.197850E+01
    3.184173E+00    1.219710E+01
    3.268237E+00    1.242347E+01
    3.357202E+00    1.265804E+01
    3.451452E+00    1.290121E+01
    3.551408E+00    1.315346E+01
    3.657534E+00    1.341527E+01
    3.770342E+00    1.368718E+01
    3.890394E+00    1.396974E+01
    4.018317E+00    1.426354E+01
    4.154799E+00    1.456925E+01
    4.300610E+00    1.488753E+01
    4.456604E+00    1.521912E+01
    4.623732E+00    1.556481E+01
    4.803059E+00    1.592545E+01
    4.995775E+00    1.630192E+01
    5.203216E+00    1.669518E+01
    5.426884E+00    1.710627E+01
    5.668472E+00    1.753626E+01
    5.929895E+00    1.798633E+01
    6.213318E+00    1.845770E+01
    6.521204E+00    1.895168E+01
    6.856354E+00    1.946962E+01
    7.221968E+00    2.001297E+01
    7.621706E+00    2.058320E+01
    8.059770E+00    2.118182E+01
    8.540993E+00    2.181036E+01
    9.070952E+00    2.247032E+01
    9.656095E+00    2.316309E+01
    1.030390E+01    2.388994E+01
    1.102304E+01    2.465183E+01
    1.182363E+01    2.544933E+01
    1.271743E+01    2.628234E+01
    1.371819E+01    2.714987E+01
    1.484190E+01    2.804954E+01
    1.610720E+01    2.897712E+01
    1.753572E+01    2.992565E+01
    1.915242E+01    3.088451E+01
    2.098581E+01    3.183789E+01
    2.306803E+01    3.276297E+01
    2.543440E+01    3.362739E+01
    2.812233E+01    3.438609E+01
    3.116891E+01    3.497742E+01
    3.460656E+01    3.531870E+01
    3.845573E+01    3.530192E+01
    4.271358E+01    3.479075E+01
    4.733793E+01    3.362154E+01
    5.222699E+01    3.161217E+01
    5.719833E+01    2.858366E+01
    6.197523E+01    2.439849E+01
    6.619367E+01    1.901376E+01
    6.944364E+01    1.253617E+01
    7.134795E+01    5.252788E+00
    7.165939E+01   -2.389965E+00
    7.033564E+01   -9.867561E+00
    6.755291E+01   -1.669191E+01
    6.365066E+01   -2.251007E+01
    5.903749E+01   -2.714878E+01
    5.410172E+01   -3.060043E+01
    4.915534E+01   -3.297369E+01
    4.441548E+01   -3.443735E+01
    4.001196E+01   -3.517575E+01
    3.600689E+01   -3.536111E+01
    3.241575E+01   -3.514047E+01
    2.922530E+01   -3.463229E+01
    2.640657E+01   -3.392834E+01
    2.392358E+01   -3.309763E+01
    2.173868E+01   -3.219098E+01
    1.981557E+01   -3.124513E+01
    1.812083E+01   -3.028615E+01
    1.662458E+01   -2.933223E+01
    1.530054E+01   -2.839578E+01
    1.412587E+01   -2.748498E+01
    1.308083E+01   -2.660499E+01
