 Vespa-Simulation Mixed Metabolite Output
 This file was generated by Vespa-Simulation. You can learn about and download Vespa here:
https://github.com/vespa-mrs/vespa/tree/main/vespa

 
 Output Path/Filename = /home/stud/casperc/bhome/Project1(DeepFit)/DeepFit-data-generation/DeepFitData_TE_20_lw18_2048p
 Output Loop Values = (1,1,1)  ( Loop 1 = 10, Loop 2 = 10, Loop3 Inactive )
 Output Comment
 ---------------------------------------------------------------------------
 
 
 Experiment Information
 ---------------------------------------------------------------------------
 --- Experiment 18b0168e-f5f0-4bd4-8d52-da93aba06c60 ---
 Name: SyntheticDataSetDeepFitTE20
 Public: False
 Created: 2024-10-08T09:55:07
 Comment (abbr.): 
 PI: Casper Cappelen
 b0: 127.740000
 Peak Search PPM low/high: -15.000000 / 15.000000
 Blend tol. PPM/phase: 0.001500 / 50.000000
 Pulse seq.: 43be13ae-de9a-40a1-9a2d-c872d8bjs100 (PRESS Ideal)
 0 User static parameters: 
 22 Metabolites: 2-hydroxyglutarate, alanine, choline-trimethyl, creatine, ethanolamine, gaba, glucose-beta, glutamate, glutamine, glutathione-glutamate, glutathione-glycine-cysteine, glycine, GPC-pcholine2, lactate, myo-inositol, n-acetylaspartate, NAAG-truncated, phosphocreatine, phosphorylcholine-trimethyl, phosphorylethanolamine, pyruvate, taurine
 22 Simulations: (not shown)
 
 Metabolite Formatting Information
 ---------------------------------------------------------------------------
 Name=2-hydroxyglutarate Abbr=2HG Scale=1.0 Shift=0.0 PPM Start=-3.1207465171441986 PPM End=12.528391440425866
 Name=alanine Abbr=Ala Scale=1.0 Shift=0.0 PPM Start=-3.1207465171441986 PPM End=12.528391440425866
 Name=choline-trimethyl Abbr=Cho Scale=1.0 Shift=0.0 PPM Start=-3.1207465171441986 PPM End=12.528391440425866
 Name=creatine Abbr=Cr Scale=1.0 Shift=0.0 PPM Start=-3.1207465171441986 PPM End=12.528391440425866
 Name=ethanolamine Abbr=ETA Scale=1.0 Shift=0.0 PPM Start=-3.1207465171441986 PPM End=12.528391440425866
 Name=gaba Abbr=GABA Scale=1.0 Shift=0.0 PPM Start=-3.1207465171441986 PPM End=12.528391440425866
 Name=glucose-beta Abbr=Glc Scale=1.0 Shift=0.0 PPM Start=-3.1207465171441986 PPM End=12.528391440425866
 Name=glutamate Abbr=Glu Scale=1.0 Shift=0.0 PPM Start=-3.1207465171441986 PPM End=12.528391440425866
 Name=glutamine Abbr=Gln Scale=1.0 Shift=0.0 PPM Start=-3.1207465171441986 PPM End=12.528391440425866
 Name=glycine Abbr=Gly Scale=1.0 Shift=0.0 PPM Start=-3.1207465171441986 PPM End=12.528391440425866
 Name=GPC-pcholine2 Abbr=GPC Scale=1.0 Shift=0.0 PPM Start=-3.1207465171441986 PPM End=12.528391440425866
 Name=lactate Abbr=Lac Scale=1.0 Shift=0.0 PPM Start=-3.1207465171441986 PPM End=12.528391440425866
 Name=myo-inositol Abbr=mI Scale=1.0 Shift=0.0 PPM Start=-3.1207465171441986 PPM End=12.528391440425866
 Name=n-acetylaspartate Abbr=NAA Scale=1.0 Shift=0.0 PPM Start=-3.1207465171441986 PPM End=12.528391440425866
 Name=NAAG-truncated Abbr=NAAG Scale=1.0 Shift=0.0 PPM Start=-3.1207465171441986 PPM End=12.528391440425866
 Name=phosphocreatine Abbr=PCr Scale=1.0 Shift=0.0 PPM Start=-3.1207465171441986 PPM End=12.528391440425866
 Name=phosphorylcholine-trimethyl Abbr=PCho Scale=1.0 Shift=0.0 PPM Start=-3.1207465171441986 PPM End=12.528391440425866
 Name=phosphorylethanolamine Abbr=PE Scale=1.0 Shift=0.0 PPM Start=-3.1207465171441986 PPM End=12.528391440425866
 Name=pyruvate Abbr=Pyr Scale=1.0 Shift=0.0 PPM Start=-3.1207465171441986 PPM End=12.528391440425866
 Name=taurine Abbr=Tau Scale=1.0 Shift=0.0 PPM Start=-3.1207465171441986 PPM End=12.528391440425866
 Name=glutathione-glutamate+glutathione-glycine-cysteine Abbr=GSH Scale=1.0 Shift=0.0 PPM Start=-3.1207565171441987 PPM End=12.528
   Mixture of [metab*scale] = glutathione-glutamate*1.000000 + glutathione-glycine-cysteine*1.000000
 
 ===========================================================================
 This LCModel format RAW file was created using the 
 Vespa-Simulation spectral simulation program using 
 the following settings and parameters 
 
 Sweep Width = 2000.0 Hz 
 Vector Size = 2048 points 
 Apodization = 18.0 Hz Lorentzian broadening
 B0 Field    = 127.74 MHz 
 Ref Singlet = False
  
 $NMID ID='GPC'
 FMTDAT='(2E16.6)'
 VOLUME=1.0
 TRAMP=1.0
 $END
    9.000000E+00   -1.513524E-16
    7.235014E+00    4.919475E+00
    3.127132E+00    7.909438E+00
   -1.809490E+00    8.067639E+00
   -5.864472E+00    5.496412E+00
   -7.718776E+00    1.212954E+00
   -6.868060E+00   -3.244068E+00
   -3.747930E+00   -6.362016E+00
    4.646091E-01   -7.163014E+00
    4.288841E+00   -5.504331E+00
    6.456473E+00   -2.080561E+00
    6.327547E+00    1.856622E+00
    4.071808E+00    4.951213E+00
    5.669103E-01    6.205917E+00
   -2.936475E+00    5.298754E+00
   -5.256938E+00    2.654532E+00
   -5.676989E+00   -7.395558E-01
   -4.159428E+00   -3.697613E+00
   -1.322612E+00   -5.246045E+00
    1.804299E+00   -4.940196E+00
    4.150812E+00   -2.985130E+00
    4.968495E+00   -1.308463E-01
    4.065646E+00    2.610637E+00
    1.841336E+00    4.320982E+00
   -8.816543E-01    4.480085E+00
   -3.157607E+00    3.119577E+00
   -4.243557E+00    7.818219E-01
   -3.838704E+00   -1.691066E+00
   -2.161545E+00   -3.457701E+00
    1.523367E-01   -3.961132E+00
    2.287651E+00   -3.101047E+00
    3.534080E+00   -1.242451E+00
    3.520140E+00    9.329889E-01
    2.319844E+00    2.674143E+00
    4.031664E-01    3.417768E+00
   -1.544059E+00    2.967895E+00
   -2.863521E+00    1.541885E+00
   -3.144762E+00   -3.257407E-01
   -2.350004E+00   -1.980798E+00
   -8.064042E-01   -2.876882E+00
    9.242492E-01   -2.753491E+00
    2.248089E+00   -1.708286E+00
    2.740980E+00   -1.444687E-01
    2.282405E+00    1.382122E+00
    1.079339E+00    2.358650E+00
   -4.216053E-01    2.486068E+00
   -1.697819E+00    1.768085E+00
   -2.331307E+00    4.933198E-01
   -2.143761E+00   -8.777526E-01
   -1.243575E+00   -1.877407E+00
    2.652463E-02   -2.188977E+00
    1.217825E+00   -1.745207E+00
    1.932948E+00   -7.372679E-01
    1.956878E+00    4.638701E-01
    1.319550E+00    1.442556E+00
    2.722723E-01    1.880932E+00
   -8.092686E-01    1.660884E+00
   -1.558410E+00    8.928259E-01
   -1.740818E+00   -1.340946E-01
   -1.326122E+00   -1.059353E+00
   -4.870159E-01   -1.576470E+00
    4.702154E-01   -1.533512E+00
    1.216226E+00   -9.757602E-01
    1.511072E+00   -1.195938E-01
    1.280102E+00    7.298337E-01
    6.301548E-01    1.286408E+00
   -1.965961E-01    1.378577E+00
   -9.115909E-01    1.000757E+00
   -1.279844E+00    3.062065E-01
   -1.196238E+00   -4.533923E-01
   -7.138091E-01   -1.018357E+00
   -1.717293E-02   -1.208822E+00
    6.469267E-01   -9.811602E-01
    1.056372E+00   -4.351219E-01
    1.087047E+00    2.276393E-01
    7.494310E-01    7.771913E-01
    1.776624E-01    1.034419E+00
   -4.226075E-01    9.286676E-01
   -8.473514E-01    5.155399E-01
   -9.629758E-01   -4.873886E-02
   -7.474975E-01   -5.655360E-01
   -2.917730E-01   -8.632196E-01
    2.372957E-01   -8.534176E-01
    6.572338E-01   -5.563600E-01
    8.324554E-01   -8.799683E-02
    7.172999E-01    3.842926E-01
    3.665678E-01    7.010140E-01
   -8.848410E-02    7.639093E-01
   -4.886949E-01    5.657296E-01
   -7.020910E-01    1.876547E-01
   -6.669761E-01   -2.329199E-01
   -4.088710E-01   -5.518085E-01
   -2.705947E-02   -6.670860E-01
    3.428861E-01   -5.510525E-01
    5.768475E-01   -2.555733E-01
    6.034199E-01    1.098612E-01
    4.250292E-01    4.181538E-01
    1.131064E-01    5.684752E-01
   -2.197976E-01    5.188212E-01
   -4.602874E-01    2.969288E-01
   -5.323243E-01   -1.290262E-02
   -4.208754E-01   -3.013482E-01
   -1.736279E-01   -4.723015E-01
    1.185896E-01   -4.745842E-01
    3.547471E-01   -3.166890E-01
    4.582814E-01   -6.068492E-02
    4.015774E-01    2.017194E-01
    2.125599E-01    3.816674E-01
   -3.775084E-02    4.230055E-01
   -2.615594E-01    3.194205E-01
   -3.848638E-01    1.138057E-01
   -3.715946E-01   -1.188852E-01
   -2.337355E-01   -2.986891E-01
   -2.463929E-02   -3.678746E-01
    1.812783E-01   -3.091976E-01
    3.147390E-01   -1.494704E-01
    3.347185E-01    5.187430E-02
    2.407204E-01    2.246629E-01
    7.070788E-02    3.121847E-01
   -1.138035E-01    2.896110E-01
   -2.497859E-01    1.706147E-01
   -2.940599E-01    6.182745E-04
   -2.367286E-01   -1.602403E-01
   -1.027133E-01   -2.582142E-01
    5.856642E-02   -2.637211E-01
    1.912345E-01   -1.799886E-01
    2.521151E-01   -4.015886E-02
    2.246233E-01    1.055265E-01
    1.228893E-01    2.076137E-01
   -1.468254E-02    2.340717E-01
   -1.397500E-01    1.801414E-01
   -2.108110E-01    6.842382E-02
   -2.068695E-01   -6.022731E-02
   -1.333785E-01   -1.614937E-01
   -1.894634E-02   -2.027292E-01
    9.558395E-02   -1.733276E-01
    1.715819E-01   -8.708809E-02
    1.855374E-01    2.376988E-02
    1.361580E-01    1.205256E-01
    4.357452E-02    1.713148E-01
   -5.861418E-02    1.615361E-01
   -1.354171E-01    9.781732E-02
   -1.623283E-01    4.613112E-03
   -1.330151E-01   -8.502252E-02
   -6.046234E-02   -1.410530E-01
    2.849677E-02   -1.464403E-01
    1.029545E-01   -1.021446E-01
    1.385974E-01   -2.583623E-02
    1.255390E-01    5.498991E-02
    7.086081E-02    1.128270E-01
   -4.708830E-03    1.294336E-01
   -7.452999E-02    1.014802E-01
   -1.153842E-01    4.083939E-02
   -1.150792E-01   -3.024042E-02
   -7.598071E-02   -8.721376E-02
   -1.340758E-02   -1.116421E-01
    5.024700E-02   -9.707634E-02
    9.345616E-02   -5.057260E-02
    1.027719E-01    1.042986E-02
    7.691942E-02    6.455673E-02
    2.654684E-02    9.394152E-02
   -3.000912E-02    9.002917E-02
   -7.333517E-02    5.596982E-02
   -8.954704E-02    4.907321E-03
   -7.466804E-02   -4.500275E-02
   -3.542548E-02   -7.699174E-02
    1.360220E-02   -8.125747E-02
    5.535110E-02   -5.788660E-02
    7.613763E-02   -1.627854E-02
    7.010410E-02    2.853182E-02
    4.075982E-02    6.125624E-02
   -7.172669E-04    7.152294E-02
   -3.967207E-02    5.710426E-02
   -6.310451E-02    2.422354E-02
