 Vespa-Simulation Mixed Metabolite Output
 This file was generated by Vespa-Simulation. You can learn about and download Vespa here:
https://github.com/vespa-mrs/vespa/tree/main/vespa

 
 Output Path/Filename = /home/stud/casperc/bhome/Project1(DeepFit)/DeepFit-data-generation/DeepFitData_TE_20_lw18_2048p
 Output Loop Values = (1,1,1)  ( Loop 1 = 10, Loop 2 = 10, Loop3 Inactive )
 Output Comment
 ---------------------------------------------------------------------------
 
 
 Experiment Information
 ---------------------------------------------------------------------------
 --- Experiment 18b0168e-f5f0-4bd4-8d52-da93aba06c60 ---
 Name: SyntheticDataSetDeepFitTE20
 Public: False
 Created: 2024-10-08T09:55:07
 Comment (abbr.): 
 PI: Casper Cappelen
 b0: 127.740000
 Peak Search PPM low/high: -15.000000 / 15.000000
 Blend tol. PPM/phase: 0.001500 / 50.000000
 Pulse seq.: 43be13ae-de9a-40a1-9a2d-c872d8bjs100 (PRESS Ideal)
 0 User static parameters: 
 22 Metabolites: 2-hydroxyglutarate, alanine, choline-trimethyl, creatine, ethanolamine, gaba, glucose-beta, glutamate, glutamine, glutathione-glutamate, glutathione-glycine-cysteine, glycine, GPC-pcholine2, lactate, myo-inositol, n-acetylaspartate, NAAG-truncated, phosphocreatine, phosphorylcholine-trimethyl, phosphorylethanolamine, pyruvate, taurine
 22 Simulations: (not shown)
 
 Metabolite Formatting Information
 ---------------------------------------------------------------------------
 Name=2-hydroxyglutarate Abbr=2HG Scale=1.0 Shift=0.0 PPM Start=-3.1207465171441986 PPM End=12.528391440425866
 Name=alanine Abbr=Ala Scale=1.0 Shift=0.0 PPM Start=-3.1207465171441986 PPM End=12.528391440425866
 Name=choline-trimethyl Abbr=Cho Scale=1.0 Shift=0.0 PPM Start=-3.1207465171441986 PPM End=12.528391440425866
 Name=creatine Abbr=Cr Scale=1.0 Shift=0.0 PPM Start=-3.1207465171441986 PPM End=12.528391440425866
 Name=ethanolamine Abbr=ETA Scale=1.0 Shift=0.0 PPM Start=-3.1207465171441986 PPM End=12.528391440425866
 Name=gaba Abbr=GABA Scale=1.0 Shift=0.0 PPM Start=-3.1207465171441986 PPM End=12.528391440425866
 Name=glucose-beta Abbr=Glc Scale=1.0 Shift=0.0 PPM Start=-3.1207465171441986 PPM End=12.528391440425866
 Name=glutamate Abbr=Glu Scale=1.0 Shift=0.0 PPM Start=-3.1207465171441986 PPM End=12.528391440425866
 Name=glutamine Abbr=Gln Scale=1.0 Shift=0.0 PPM Start=-3.1207465171441986 PPM End=12.528391440425866
 Name=glycine Abbr=Gly Scale=1.0 Shift=0.0 PPM Start=-3.1207465171441986 PPM End=12.528391440425866
 Name=GPC-pcholine2 Abbr=GPC Scale=1.0 Shift=0.0 PPM Start=-3.1207465171441986 PPM End=12.528391440425866
 Name=lactate Abbr=Lac Scale=1.0 Shift=0.0 PPM Start=-3.1207465171441986 PPM End=12.528391440425866
 Name=myo-inositol Abbr=mI Scale=1.0 Shift=0.0 PPM Start=-3.1207465171441986 PPM End=12.528391440425866
 Name=n-acetylaspartate Abbr=NAA Scale=1.0 Shift=0.0 PPM Start=-3.1207465171441986 PPM End=12.528391440425866
 Name=NAAG-truncated Abbr=NAAG Scale=1.0 Shift=0.0 PPM Start=-3.1207465171441986 PPM End=12.528391440425866
 Name=phosphocreatine Abbr=PCr Scale=1.0 Shift=0.0 PPM Start=-3.1207465171441986 PPM End=12.528391440425866
 Name=phosphorylcholine-trimethyl Abbr=PCho Scale=1.0 Shift=0.0 PPM Start=-3.1207465171441986 PPM End=12.528391440425866
 Name=phosphorylethanolamine Abbr=PE Scale=1.0 Shift=0.0 PPM Start=-3.1207465171441986 PPM End=12.528391440425866
 Name=pyruvate Abbr=Pyr Scale=1.0 Shift=0.0 PPM Start=-3.1207465171441986 PPM End=12.528391440425866
 Name=taurine Abbr=Tau Scale=1.0 Shift=0.0 PPM Start=-3.1207465171441986 PPM End=12.528391440425866
 Name=glutathione-glutamate+glutathione-glycine-cysteine Abbr=GSH Scale=1.0 Shift=0.0 PPM Start=-3.1207565171441987 PPM End=12.528
   Mixture of [metab*scale] = glutathione-glutamate*1.000000 + glutathione-glycine-cysteine*1.000000
 
 ===========================================================================
 This LCModel format RAW file was created using the 
 Vespa-Simulation spectral simulation program using 
 the following settings and parameters 
 
 Sweep Width = 2000.0 Hz 
 Vector Size = 2048 points 
 Apodization = 18.0 Hz Lorentzian broadening
 B0 Field    = 127.74 MHz 
 Ref Singlet = False
  
 This data has been FFTd to be in the FREQUENCY domain
 
 $NMID ID='GPC'
 FMTDAT='(2E16.6)'
 VOLUME=1.0
 TRAMP=1.0
 $END
    5.233513E+00    1.458743E+01
    5.240863E+00    1.466709E+01
    5.248328E+00    1.474755E+01
    5.255909E+00    1.482882E+01
    5.263610E+00    1.491091E+01
    5.271434E+00    1.499384E+01
    5.279384E+00    1.507762E+01
    5.287466E+00    1.516226E+01
    5.295683E+00    1.524778E+01
    5.304039E+00    1.533418E+01
    5.312536E+00    1.542149E+01
    5.321177E+00    1.550970E+01
    5.329960E+00    1.559884E+01
    5.338887E+00    1.568892E+01
    5.347957E+00    1.577996E+01
    5.357173E+00    1.587197E+01
    5.366534E+00    1.596497E+01
    5.376046E+00    1.605898E+01
    5.385712E+00    1.615403E+01
    5.395538E+00    1.625012E+01
    5.405528E+00    1.634729E+01
    5.415687E+00    1.644554E+01
    5.426021E+00    1.654490E+01
    5.436537E+00    1.664539E+01
    5.447239E+00    1.674702E+01
    5.458133E+00    1.684982E+01
    5.469225E+00    1.695380E+01
    5.480520E+00    1.705898E+01
    5.492022E+00    1.716538E+01
    5.503735E+00    1.727303E+01
    5.515665E+00    1.738195E+01
    5.527814E+00    1.749215E+01
    5.540189E+00    1.760367E+01
    5.552793E+00    1.771652E+01
    5.565633E+00    1.783073E+01
    5.578714E+00    1.794633E+01
    5.592042E+00    1.806334E+01
    5.605624E+00    1.818179E+01
    5.619465E+00    1.830171E+01
    5.633572E+00    1.842312E+01
    5.647954E+00    1.854606E+01
    5.662617E+00    1.867055E+01
    5.677570E+00    1.879662E+01
    5.692819E+00    1.892431E+01
    5.708373E+00    1.905363E+01
    5.724239E+00    1.918464E+01
    5.740423E+00    1.931735E+01
    5.756935E+00    1.945181E+01
    5.773783E+00    1.958804E+01
    5.790975E+00    1.972609E+01
    5.808521E+00    1.986600E+01
    5.826432E+00    2.000780E+01
    5.844716E+00    2.015152E+01
    5.863385E+00    2.029722E+01
    5.882450E+00    2.044493E+01
    5.901923E+00    2.059470E+01
    5.921816E+00    2.074657E+01
    5.942142E+00    2.090059E+01
    5.962915E+00    2.105680E+01
    5.984148E+00    2.121524E+01
    6.005855E+00    2.137598E+01
    6.028049E+00    2.153904E+01
    6.050744E+00    2.170450E+01
    6.073955E+00    2.187240E+01
    6.097697E+00    2.204279E+01
    6.121986E+00    2.221573E+01
    6.146840E+00    2.239129E+01
    6.172275E+00    2.256952E+01
    6.198310E+00    2.275048E+01
    6.224964E+00    2.293424E+01
    6.252255E+00    2.312087E+01
    6.280206E+00    2.331043E+01
    6.308839E+00    2.350299E+01
    6.338175E+00    2.369863E+01
    6.368240E+00    2.389741E+01
    6.399058E+00    2.409943E+01
    6.430652E+00    2.430475E+01
    6.463050E+00    2.451345E+01
    6.496278E+00    2.472563E+01
    6.530364E+00    2.494137E+01
    6.565338E+00    2.516076E+01
    6.601229E+00    2.538389E+01
    6.638071E+00    2.561087E+01
    6.675897E+00    2.584179E+01
    6.714742E+00    2.607675E+01
    6.754644E+00    2.631588E+01
    6.795642E+00    2.655927E+01
    6.837776E+00    2.680705E+01
    6.881091E+00    2.705933E+01
    6.925630E+00    2.731624E+01
    6.971442E+00    2.757790E+01
    7.018576E+00    2.784445E+01
    7.067082E+00    2.811603E+01
    7.117013E+00    2.839277E+01
    7.168423E+00    2.867483E+01
    7.221371E+00    2.896236E+01
    7.275917E+00    2.925552E+01
    7.332126E+00    2.955448E+01
    7.390067E+00    2.985942E+01
    7.449811E+00    3.017051E+01
    7.511436E+00    3.048795E+01
    7.575022E+00    3.081192E+01
    7.640654E+00    3.114264E+01
    7.708420E+00    3.148031E+01
    7.778414E+00    3.182515E+01
    7.850731E+00    3.217740E+01
    7.925475E+00    3.253728E+01
    8.002753E+00    3.290506E+01
    8.082680E+00    3.328099E+01
    8.165379E+00    3.366534E+01
    8.250979E+00    3.405841E+01
    8.339617E+00    3.446049E+01
    8.431440E+00    3.487189E+01
    8.526602E+00    3.529293E+01
    8.625267E+00    3.572396E+01
    8.727606E+00    3.616534E+01
    8.833805E+00    3.661742E+01
    8.944059E+00    3.708061E+01
    9.058574E+00    3.755532E+01
    9.177572E+00    3.804197E+01
    9.301289E+00    3.854101E+01
    9.429976E+00    3.905293E+01
    9.563902E+00    3.957821E+01
    9.703353E+00    4.011738E+01
    9.848636E+00    4.067099E+01
    1.000008E+01    4.123961E+01
    1.015804E+01    4.182387E+01
    1.032288E+01    4.242440E+01
    1.049501E+01    4.304187E+01
    1.067488E+01    4.367700E+01
    1.086293E+01    4.433054E+01
    1.105967E+01    4.500329E+01
    1.126565E+01    4.569609E+01
    1.148144E+01    4.640982E+01
    1.170767E+01    4.714543E+01
    1.194503E+01    4.790391E+01
    1.219424E+01    4.868632E+01
    1.245610E+01    4.949377E+01
    1.273147E+01    5.032745E+01
    1.302130E+01    5.118862E+01
    1.332660E+01    5.207863E+01
    1.364847E+01    5.299888E+01
    1.398814E+01    5.395090E+01
    1.434692E+01    5.493629E+01
    1.472626E+01    5.595676E+01
    1.512773E+01    5.701414E+01
    1.555308E+01    5.811039E+01
    1.600420E+01    5.924758E+01
    1.648319E+01    6.042792E+01
    1.699237E+01    6.165380E+01
    1.753428E+01    6.292773E+01
    1.811175E+01    6.425244E+01
    1.872791E+01    6.563081E+01
    1.938622E+01    6.706595E+01
    2.009056E+01    6.856117E+01
    2.084522E+01    7.012001E+01
    2.165503E+01    7.174627E+01
    2.252537E+01    7.344400E+01
    2.346229E+01    7.521753E+01
    2.447258E+01    7.707149E+01
    2.556391E+01    7.901080E+01
    2.674495E+01    8.104069E+01
    2.802551E+01    8.316673E+01
    2.941673E+01    8.539479E+01
    3.093131E+01    8.773102E+01
    3.258373E+01    9.018189E+01
    3.439059E+01    9.275405E+01
    3.637091E+01    9.545433E+01
    3.854660E+01    9.828957E+01
    4.094293E+01    1.012665E+02
    4.358914E+01    1.043914E+02
    4.651910E+01    1.076699E+02
