 Vespa-Simulation Mixed Metabolite Output
 This file was generated by Vespa-Simulation. You can learn about and download Vespa here:
https://github.com/vespa-mrs/vespa/tree/main/vespa

 
 Output Path/Filename = /home/stud/casperc/bhome/Project1(DeepFit)/DeepFit-data-generation/DeepFitData_TE_20_lw18_2048p
 Output Loop Values = (1,1,1)  ( Loop 1 = 10, Loop 2 = 10, Loop3 Inactive )
 Output Comment
 ---------------------------------------------------------------------------
 
 
 Experiment Information
 ---------------------------------------------------------------------------
 --- Experiment 18b0168e-f5f0-4bd4-8d52-da93aba06c60 ---
 Name: SyntheticDataSetDeepFitTE20
 Public: False
 Created: 2024-10-08T09:55:07
 Comment (abbr.): 
 PI: Casper Cappelen
 b0: 127.740000
 Peak Search PPM low/high: -15.000000 / 15.000000
 Blend tol. PPM/phase: 0.001500 / 50.000000
 Pulse seq.: 43be13ae-de9a-40a1-9a2d-c872d8bjs100 (PRESS Ideal)
 0 User static parameters: 
 22 Metabolites: 2-hydroxyglutarate, alanine, choline-trimethyl, creatine, ethanolamine, gaba, glucose-beta, glutamate, glutamine, glutathione-glutamate, glutathione-glycine-cysteine, glycine, GPC-pcholine2, lactate, myo-inositol, n-acetylaspartate, NAAG-truncated, phosphocreatine, phosphorylcholine-trimethyl, phosphorylethanolamine, pyruvate, taurine
 22 Simulations: (not shown)
 
 Metabolite Formatting Information
 ---------------------------------------------------------------------------
 Name=2-hydroxyglutarate Abbr=2HG Scale=1.0 Shift=0.0 PPM Start=-3.1207465171441986 PPM End=12.528391440425866
 Name=alanine Abbr=Ala Scale=1.0 Shift=0.0 PPM Start=-3.1207465171441986 PPM End=12.528391440425866
 Name=choline-trimethyl Abbr=Cho Scale=1.0 Shift=0.0 PPM Start=-3.1207465171441986 PPM End=12.528391440425866
 Name=creatine Abbr=Cr Scale=1.0 Shift=0.0 PPM Start=-3.1207465171441986 PPM End=12.528391440425866
 Name=ethanolamine Abbr=ETA Scale=1.0 Shift=0.0 PPM Start=-3.1207465171441986 PPM End=12.528391440425866
 Name=gaba Abbr=GABA Scale=1.0 Shift=0.0 PPM Start=-3.1207465171441986 PPM End=12.528391440425866
 Name=glucose-beta Abbr=Glc Scale=1.0 Shift=0.0 PPM Start=-3.1207465171441986 PPM End=12.528391440425866
 Name=glutamate Abbr=Glu Scale=1.0 Shift=0.0 PPM Start=-3.1207465171441986 PPM End=12.528391440425866
 Name=glutamine Abbr=Gln Scale=1.0 Shift=0.0 PPM Start=-3.1207465171441986 PPM End=12.528391440425866
 Name=glycine Abbr=Gly Scale=1.0 Shift=0.0 PPM Start=-3.1207465171441986 PPM End=12.528391440425866
 Name=GPC-pcholine2 Abbr=GPC Scale=1.0 Shift=0.0 PPM Start=-3.1207465171441986 PPM End=12.528391440425866
 Name=lactate Abbr=Lac Scale=1.0 Shift=0.0 PPM Start=-3.1207465171441986 PPM End=12.528391440425866
 Name=myo-inositol Abbr=mI Scale=1.0 Shift=0.0 PPM Start=-3.1207465171441986 PPM End=12.528391440425866
 Name=n-acetylaspartate Abbr=NAA Scale=1.0 Shift=0.0 PPM Start=-3.1207465171441986 PPM End=12.528391440425866
 Name=NAAG-truncated Abbr=NAAG Scale=1.0 Shift=0.0 PPM Start=-3.1207465171441986 PPM End=12.528391440425866
 Name=phosphocreatine Abbr=PCr Scale=1.0 Shift=0.0 PPM Start=-3.1207465171441986 PPM End=12.528391440425866
 Name=phosphorylcholine-trimethyl Abbr=PCho Scale=1.0 Shift=0.0 PPM Start=-3.1207465171441986 PPM End=12.528391440425866
 Name=phosphorylethanolamine Abbr=PE Scale=1.0 Shift=0.0 PPM Start=-3.1207465171441986 PPM End=12.528391440425866
 Name=pyruvate Abbr=Pyr Scale=1.0 Shift=0.0 PPM Start=-3.1207465171441986 PPM End=12.528391440425866
 Name=taurine Abbr=Tau Scale=1.0 Shift=0.0 PPM Start=-3.1207465171441986 PPM End=12.528391440425866
 Name=glutathione-glutamate+glutathione-glycine-cysteine Abbr=GSH Scale=1.0 Shift=0.0 PPM Start=-3.1207565171441987 PPM End=12.528
   Mixture of [metab*scale] = glutathione-glutamate*1.000000 + glutathione-glycine-cysteine*1.000000
 
 ===========================================================================
 This LCModel format RAW file was created using the 
 Vespa-Simulation spectral simulation program using 
 the following settings and parameters 
 
 Sweep Width = 2000.0 Hz 
 Vector Size = 2048 points 
 Apodization = 18.0 Hz Lorentzian broadening
 B0 Field    = 127.74 MHz 
 Ref Singlet = False
  
 $NMID ID='GSH'
 FMTDAT='(2E16.6)'
 VOLUME=1.0
 TRAMP=1.0
 $END
    1.034688E+01    1.617844E-02
    7.489905E+00    4.385190E+00
    1.623844E+00    6.151362E+00
   -3.073831E+00    4.848187E+00
   -3.865234E+00    2.010755E+00
   -1.344335E+00   -1.998326E-01
    1.525195E+00   -6.200370E-01
    2.129093E+00    3.189852E-01
    2.443227E-01    1.297157E+00
   -2.182084E+00    1.314812E+00
   -3.012947E+00    3.597440E-01
   -1.743055E+00   -8.577144E-01
    3.543447E-01   -1.645417E+00
    1.624774E+00   -1.811540E+00
    1.523474E+00   -1.570096E+00
    8.734039E-01   -1.147878E+00
    8.399422E-01   -5.661424E-01
    1.728602E+00    2.329919E-01
    2.733524E+00    1.151316E+00
    2.767006E+00    1.905990E+00
    1.500954E+00    2.245419E+00
   -3.493129E-01    2.156898E+00
   -1.681207E+00    1.829695E+00
   -1.920790E+00    1.423688E+00
   -1.368261E+00    9.178785E-01
   -7.571208E-01    2.217980E-01
   -5.411351E-01   -5.758075E-01
   -5.902885E-01   -1.130884E+00
   -4.976665E-01   -1.092090E+00
   -9.645407E-02   -4.695908E-01
    3.606103E-01    2.597245E-01
    5.079824E-01    4.869032E-01
    3.010402E-01   -1.389921E-03
    1.034051E-01   -7.781490E-01
    3.218596E-01   -1.079183E+00
    9.488844E-01   -4.362531E-01
    1.479047E+00    8.934970E-01
    1.314921E+00    2.083505E+00
    3.124859E-01    2.364258E+00
   -1.028112E+00    1.603696E+00
   -1.911570E+00    3.704460E-01
   -1.849895E+00   -5.448440E-01
   -1.016814E+00   -7.280923E-01
   -7.543316E-02   -3.740178E-01
    3.542820E-01   -1.179946E-02
    1.418516E-01   -1.603934E-02
   -3.329858E-01   -3.343279E-01
   -5.521246E-01   -6.220477E-01
   -2.840804E-01   -6.020960E-01
    2.762799E-01   -3.006004E-01
    7.208821E-01    2.938474E-02
    7.737334E-01    1.783711E-01
    4.768791E-01    1.669849E-01
    9.720108E-02    1.834832E-01
   -1.246397E-01    3.601789E-01
   -1.554960E-01    6.208904E-01
   -1.467686E-01    7.448086E-01
   -2.590446E-01    5.754799E-01
   -5.026827E-01    1.705664E-01
   -7.259243E-01   -2.443118E-01
   -7.455227E-01   -4.646302E-01
   -5.004217E-01   -4.597482E-01
   -1.037767E-01   -3.585267E-01
    2.394043E-01   -3.014882E-01
    3.760113E-01   -3.109302E-01
    2.995751E-01   -2.972376E-01
    1.337255E-01   -1.783917E-01
    2.908923E-02    1.728571E-02
    5.635119E-02    1.697285E-01
    1.697961E-01    1.856191E-01
    2.566910E-01    9.580888E-02
    2.262697E-01    3.173499E-02
    7.110854E-02    9.926121E-02
   -1.371705E-01    2.687416E-01
   -3.042229E-01    3.877266E-01
   -3.732845E-01    3.104768E-01
   -3.469850E-01    3.078870E-02
   -2.644370E-01   -2.999243E-01
   -1.622961E-01   -4.864459E-01
   -5.495821E-02   -4.388512E-01
    5.499171E-02   -2.326453E-01
    1.549981E-01   -3.564342E-02
    2.170801E-01    2.981548E-02
    2.175231E-01   -2.734635E-02
    1.624955E-01   -9.697168E-02
    9.159720E-02   -7.590392E-02
    5.051348E-02    4.399117E-02
    5.399611E-02    1.787814E-01
    7.247347E-02    2.332149E-01
    5.696771E-02    1.818779E-01
   -1.699569E-02    8.163690E-02
   -1.241087E-01    1.241776E-02
   -2.055696E-01    5.394315E-03
   -2.141248E-01    2.269000E-02
   -1.499748E-01    1.698093E-03
   -5.760282E-02   -8.068888E-02
    1.226796E-02   -1.827818E-01
    4.160546E-02   -2.325725E-01
    5.174372E-02   -1.892090E-01
    7.468585E-02   -7.722122E-02
    1.174549E-01    3.430173E-02
    1.530033E-01    8.708968E-02
    1.454995E-01    7.558133E-02
    8.588865E-02    4.233001E-02
    4.289847E-03    3.530013E-02
   -5.289061E-02    6.638358E-02
   -6.096690E-02    1.055033E-01
   -3.623123E-02    1.114705E-01
   -1.948855E-02    6.956783E-02
   -3.870377E-02    3.034026E-03
   -8.382336E-02   -4.897376E-02
   -1.155156E-01   -6.483839E-02
   -9.952634E-02   -5.535095E-02
   -3.637245E-02   -4.868042E-02
    3.882571E-02   -6.130648E-02
    8.495008E-02   -8.207001E-02
    8.643731E-02   -8.321568E-02
    6.130347E-02   -4.738773E-02
    4.093885E-02    1.426648E-02
    4.138983E-02    6.913593E-02
    5.150755E-02    8.887581E-02
    4.673996E-02    7.126147E-02
    1.430165E-02    3.965674E-02
   -3.359679E-02    2.157556E-02
   -6.967556E-02    2.559897E-02
   -7.476294E-02    3.634114E-02
   -5.313397E-02    3.064792E-02
   -2.699430E-02   -2.426331E-04
   -1.611202E-02   -4.213813E-02
   -2.128878E-02   -6.975215E-02
   -2.587126E-02   -6.783705E-02
   -1.287191E-02   -4.298831E-02
    1.841357E-02   -1.654126E-02
    5.102366E-02   -5.712212E-03
    6.477350E-02   -9.846512E-03
    5.315518E-02   -1.324341E-02
    2.784834E-02   -1.046773E-03
    7.594249E-03    2.642111E-02
    1.994583E-03    5.335634E-02
    4.648863E-03    6.182683E-02
    1.042933E-03    4.663543E-02
   -1.662240E-02    1.888214E-02
   -4.121209E-02   -4.093099E-03
   -5.618879E-02   -1.287844E-02
   -4.969453E-02   -1.189825E-02
   -2.471129E-02   -1.277293E-02
    3.304279E-03   -2.207080E-02
    1.887274E-02   -3.490528E-02
    1.816038E-02   -3.979115E-02
    1.029122E-02   -2.976421E-02
    8.015350E-03   -9.298666E-03
    1.635129E-02    9.238566E-03
    2.884176E-02    1.617934E-02
    3.391570E-02    1.248209E-02
    2.517111E-02    7.960378E-03
    6.611515E-03    1.165859E-02
   -1.113995E-02    2.323196E-02
   -1.971294E-02    3.306243E-02
   -1.907824E-02    3.084229E-02
   -1.601115E-02    1.481949E-02
   -1.695986E-02   -6.479994E-03
   -2.192497E-02   -2.131726E-02
   -2.462861E-02   -2.410588E-02
   -1.848740E-02   -1.884179E-02
   -2.985518E-03   -1.404704E-02
    1.505546E-02   -1.435627E-02
    2.630579E-02   -1.660725E-02
    2.578961E-02   -1.377690E-02
    1.624159E-02   -2.721522E-03
    5.532425E-03    1.181052E-02
    5.124621E-04    2.080508E-02
    2.230163E-03    1.897489E-02
    6.000629E-03    9.697556E-03
    5.777540E-03    2.195943E-03
