 Vespa-Simulation Mixed Metabolite Output
 This file was generated by Vespa-Simulation. You can learn about and download Vespa here:
https://github.com/vespa-mrs/vespa/tree/main/vespa

 
 Output Path/Filename = /home/stud/casperc/bhome/Project1(DeepFit)/DeepFit-data-generation/DeepFitData_TE_20_lw18_2048p
 Output Loop Values = (1,1,1)  ( Loop 1 = 10, Loop 2 = 10, Loop3 Inactive )
 Output Comment
 ---------------------------------------------------------------------------
 
 
 Experiment Information
 ---------------------------------------------------------------------------
 --- Experiment 18b0168e-f5f0-4bd4-8d52-da93aba06c60 ---
 Name: SyntheticDataSetDeepFitTE20
 Public: False
 Created: 2024-10-08T09:55:07
 Comment (abbr.): 
 PI: Casper Cappelen
 b0: 127.740000
 Peak Search PPM low/high: -15.000000 / 15.000000
 Blend tol. PPM/phase: 0.001500 / 50.000000
 Pulse seq.: 43be13ae-de9a-40a1-9a2d-c872d8bjs100 (PRESS Ideal)
 0 User static parameters: 
 22 Metabolites: 2-hydroxyglutarate, alanine, choline-trimethyl, creatine, ethanolamine, gaba, glucose-beta, glutamate, glutamine, glutathione-glutamate, glutathione-glycine-cysteine, glycine, GPC-pcholine2, lactate, myo-inositol, n-acetylaspartate, NAAG-truncated, phosphocreatine, phosphorylcholine-trimethyl, phosphorylethanolamine, pyruvate, taurine
 22 Simulations: (not shown)
 
 Metabolite Formatting Information
 ---------------------------------------------------------------------------
 Name=2-hydroxyglutarate Abbr=2HG Scale=1.0 Shift=0.0 PPM Start=-3.1207465171441986 PPM End=12.528391440425866
 Name=alanine Abbr=Ala Scale=1.0 Shift=0.0 PPM Start=-3.1207465171441986 PPM End=12.528391440425866
 Name=choline-trimethyl Abbr=Cho Scale=1.0 Shift=0.0 PPM Start=-3.1207465171441986 PPM End=12.528391440425866
 Name=creatine Abbr=Cr Scale=1.0 Shift=0.0 PPM Start=-3.1207465171441986 PPM End=12.528391440425866
 Name=ethanolamine Abbr=ETA Scale=1.0 Shift=0.0 PPM Start=-3.1207465171441986 PPM End=12.528391440425866
 Name=gaba Abbr=GABA Scale=1.0 Shift=0.0 PPM Start=-3.1207465171441986 PPM End=12.528391440425866
 Name=glucose-beta Abbr=Glc Scale=1.0 Shift=0.0 PPM Start=-3.1207465171441986 PPM End=12.528391440425866
 Name=glutamate Abbr=Glu Scale=1.0 Shift=0.0 PPM Start=-3.1207465171441986 PPM End=12.528391440425866
 Name=glutamine Abbr=Gln Scale=1.0 Shift=0.0 PPM Start=-3.1207465171441986 PPM End=12.528391440425866
 Name=glycine Abbr=Gly Scale=1.0 Shift=0.0 PPM Start=-3.1207465171441986 PPM End=12.528391440425866
 Name=GPC-pcholine2 Abbr=GPC Scale=1.0 Shift=0.0 PPM Start=-3.1207465171441986 PPM End=12.528391440425866
 Name=lactate Abbr=Lac Scale=1.0 Shift=0.0 PPM Start=-3.1207465171441986 PPM End=12.528391440425866
 Name=myo-inositol Abbr=mI Scale=1.0 Shift=0.0 PPM Start=-3.1207465171441986 PPM End=12.528391440425866
 Name=n-acetylaspartate Abbr=NAA Scale=1.0 Shift=0.0 PPM Start=-3.1207465171441986 PPM End=12.528391440425866
 Name=NAAG-truncated Abbr=NAAG Scale=1.0 Shift=0.0 PPM Start=-3.1207465171441986 PPM End=12.528391440425866
 Name=phosphocreatine Abbr=PCr Scale=1.0 Shift=0.0 PPM Start=-3.1207465171441986 PPM End=12.528391440425866
 Name=phosphorylcholine-trimethyl Abbr=PCho Scale=1.0 Shift=0.0 PPM Start=-3.1207465171441986 PPM End=12.528391440425866
 Name=phosphorylethanolamine Abbr=PE Scale=1.0 Shift=0.0 PPM Start=-3.1207465171441986 PPM End=12.528391440425866
 Name=pyruvate Abbr=Pyr Scale=1.0 Shift=0.0 PPM Start=-3.1207465171441986 PPM End=12.528391440425866
 Name=taurine Abbr=Tau Scale=1.0 Shift=0.0 PPM Start=-3.1207465171441986 PPM End=12.528391440425866
 Name=glutathione-glutamate+glutathione-glycine-cysteine Abbr=GSH Scale=1.0 Shift=0.0 PPM Start=-3.1207565171441987 PPM End=12.528
   Mixture of [metab*scale] = glutathione-glutamate*1.000000 + glutathione-glycine-cysteine*1.000000
 
 ===========================================================================
 This LCModel format RAW file was created using the 
 Vespa-Simulation spectral simulation program using 
 the following settings and parameters 
 
 Sweep Width = 2000.0 Hz 
 Vector Size = 2048 points 
 Apodization = 18.0 Hz Lorentzian broadening
 B0 Field    = 127.74 MHz 
 Ref Singlet = False
  
 This data has been FFTd to be in the FREQUENCY domain
 
 $NMID ID='GSH'
 FMTDAT='(2E16.6)'
 VOLUME=1.0
 TRAMP=1.0
 $END
    1.344178E+01    2.403930E+01
    1.409672E+01    2.433306E+01
    1.481713E+01    2.459451E+01
    1.560582E+01    2.481065E+01
    1.646293E+01    2.496591E+01
    1.738462E+01    2.504265E+01
    1.836162E+01    2.502239E+01
    1.937825E+01    2.488803E+01
    2.041263E+01    2.462700E+01
    2.143884E+01    2.423452E+01
    2.243157E+01    2.371544E+01
    2.337192E+01    2.308262E+01
    2.425144E+01    2.235073E+01
    2.507036E+01    2.152752E+01
    2.582873E+01    2.060833E+01
    2.651449E+01    1.957918E+01
    2.709664E+01    1.842948E+01
    2.753035E+01    1.716760E+01
    2.777321E+01    1.582909E+01
    2.780407E+01    1.447048E+01
    2.763231E+01    1.315107E+01
    2.729176E+01    1.191317E+01
    2.682295E+01    1.077297E+01
    2.625539E+01    9.726144E+00
    2.560020E+01    8.763226E+00
    2.485557E+01    7.883678E+00
    2.401928E+01    7.100692E+00
    2.309923E+01    6.435888E+00
    2.211635E+01    5.909493E+00
    2.110055E+01    5.532530E+00
    2.008380E+01    5.304099E+00
    1.909423E+01    5.213093E+00
    1.815303E+01    5.241969E+00
    1.727382E+01    5.370580E+00
    1.646353E+01    5.579040E+00
    1.572405E+01    5.849438E+00
    1.505380E+01    6.166607E+00
    1.444911E+01    6.518241E+00
    1.390524E+01    6.894650E+00
    1.341706E+01    7.288357E+00
    1.297945E+01    7.693676E+00
    1.258752E+01    8.106336E+00
    1.223677E+01    8.523167E+00
    1.192308E+01    8.941857E+00
    1.164274E+01    9.360754E+00
    1.139243E+01    9.778722E+00
    1.116921E+01    1.019502E+01
    1.097047E+01    1.060921E+01
    1.079392E+01    1.102109E+01
    1.063755E+01    1.143063E+01
    1.049957E+01    1.183794E+01
    1.037844E+01    1.224324E+01
    1.027281E+01    1.264683E+01
    1.018150E+01    1.304905E+01
    1.010348E+01    1.345032E+01
    1.003788E+01    1.385105E+01
    9.983951E+00    1.425173E+01
    9.941048E+00    1.465280E+01
    9.908637E+00    1.505477E+01
    9.886274E+00    1.545813E+01
    9.873594E+00    1.586335E+01
    9.870297E+00    1.627094E+01
    9.876145E+00    1.668139E+01
    9.890955E+00    1.709522E+01
    9.914597E+00    1.751296E+01
    9.946993E+00    1.793514E+01
    9.988117E+00    1.836233E+01
    1.003799E+01    1.879512E+01
    1.009670E+01    1.923413E+01
    1.016439E+01    1.968002E+01
    1.024127E+01    2.013346E+01
    1.032763E+01    2.059516E+01
    1.042385E+01    2.106586E+01
    1.053037E+01    2.154631E+01
    1.064771E+01    2.203727E+01
    1.077647E+01    2.253953E+01
    1.091732E+01    2.305392E+01
    1.107101E+01    2.358131E+01
    1.123843E+01    2.412260E+01
    1.142055E+01    2.467875E+01
    1.161850E+01    2.525074E+01
    1.183352E+01    2.583961E+01
    1.206701E+01    2.644640E+01
    1.232052E+01    2.707224E+01
    1.259577E+01    2.771831E+01
    1.289469E+01    2.838586E+01
    1.321948E+01    2.907622E+01
    1.357263E+01    2.979079E+01
    1.395695E+01    3.053104E+01
    1.437566E+01    3.129846E+01
    1.483240E+01    3.209461E+01
    1.533134E+01    3.292105E+01
    1.587724E+01    3.377934E+01
    1.647550E+01    3.467097E+01
    1.713233E+01    3.559736E+01
    1.785482E+01    3.655975E+01
    1.865110E+01    3.755912E+01
    1.953049E+01    3.859606E+01
    2.050367E+01    3.967059E+01
    2.158289E+01    4.078195E+01
    2.278215E+01    4.192824E+01
    2.411742E+01    4.310608E+01
    2.560684E+01    4.431005E+01
    2.727083E+01    4.553197E+01
    2.913213E+01    4.676015E+01
    3.121572E+01    4.797822E+01
    3.354841E+01    4.916399E+01
    3.615813E+01    5.028808E+01
    3.907276E+01    5.131245E+01
    4.231850E+01    5.218916E+01
    4.591787E+01    5.285932E+01
    4.988763E+01    5.325221E+01
    5.423672E+01    5.328418E+01
    5.896381E+01    5.285628E+01
    6.405264E+01    5.184972E+01
    6.946122E+01    5.012003E+01
    7.510112E+01    4.749533E+01
    8.080760E+01    4.378858E+01
    8.631079E+01    3.883481E+01
    9.122882E+01    3.255493E+01
    9.510533E+01    2.503009E+01
    9.749952E+01    1.655140E+01
    9.810593E+01    7.606190E+00
    9.685226E+01   -1.213599E+00
    9.392297E+01   -9.349548E+00
    8.969521E+01   -1.639903E+01
    8.462323E+01   -2.216989E+01
    7.912866E+01   -2.665914E+01
    7.353647E+01   -2.998635E+01
    6.806253E+01   -3.232217E+01
    6.283451E+01   -3.383866E+01
    5.792212E+01   -3.468715E+01
    5.336132E+01   -3.499501E+01
    4.916805E+01   -3.487005E+01
    4.534447E+01   -3.440491E+01
    4.188197E+01   -3.367939E+01
    3.876353E+01   -3.276123E+01
    3.596617E+01   -3.170656E+01
    3.346349E+01   -3.056062E+01
    3.122775E+01   -2.935895E+01
    2.923148E+01   -2.812873E+01
    2.744861E+01   -2.689032E+01
    2.585501E+01   -2.565858E+01
    2.442883E+01   -2.444409E+01
    2.315055E+01   -2.325413E+01
    2.200290E+01   -2.209349E+01
    2.097065E+01   -2.096510E+01
    2.004052E+01   -1.987051E+01
    1.920086E+01   -1.881029E+01
    1.844152E+01   -1.778424E+01
    1.775366E+01   -1.679170E+01
    1.712955E+01   -1.583163E+01
    1.656245E+01   -1.490274E+01
    1.604647E+01   -1.400364E+01
    1.557644E+01   -1.313280E+01
    1.514784E+01   -1.228867E+01
    1.475669E+01   -1.146971E+01
    1.439951E+01   -1.067435E+01
    1.407321E+01   -9.901089E+00
    1.377509E+01   -9.148440E+00
    1.350275E+01   -8.414964E+00
    1.325407E+01   -7.699269E+00
    1.302719E+01   -7.000005E+00
    1.282048E+01   -6.315866E+00
    1.263250E+01   -5.645592E+00
    1.246201E+01   -4.987967E+00
    1.230793E+01   -4.341823E+00
    1.216935E+01   -3.706052E+00
    1.204551E+01   -3.079613E+00
    1.193575E+01   -2.461542E+00
    1.183952E+01   -1.850942E+00
    1.175630E+01   -1.246975E+00
