 Vespa-Simulation Mixed Metabolite Output
 This file was generated by Vespa-Simulation. You can learn about and download Vespa here:
https://github.com/vespa-mrs/vespa/tree/main/vespa

 
 Output Path/Filename = /home/stud/casperc/bhome/Project1(DeepFit)/DeepFit-data-generation/DeepFitData_TE_20_lw18_2048p
 Output Loop Values = (1,1,1)  ( Loop 1 = 10, Loop 2 = 10, Loop3 Inactive )
 Output Comment
 ---------------------------------------------------------------------------
 
 
 Experiment Information
 ---------------------------------------------------------------------------
 --- Experiment 18b0168e-f5f0-4bd4-8d52-da93aba06c60 ---
 Name: SyntheticDataSetDeepFitTE20
 Public: False
 Created: 2024-10-08T09:55:07
 Comment (abbr.): 
 PI: Casper Cappelen
 b0: 127.740000
 Peak Search PPM low/high: -15.000000 / 15.000000
 Blend tol. PPM/phase: 0.001500 / 50.000000
 Pulse seq.: 43be13ae-de9a-40a1-9a2d-c872d8bjs100 (PRESS Ideal)
 0 User static parameters: 
 22 Metabolites: 2-hydroxyglutarate, alanine, choline-trimethyl, creatine, ethanolamine, gaba, glucose-beta, glutamate, glutamine, glutathione-glutamate, glutathione-glycine-cysteine, glycine, GPC-pcholine2, lactate, myo-inositol, n-acetylaspartate, NAAG-truncated, phosphocreatine, phosphorylcholine-trimethyl, phosphorylethanolamine, pyruvate, taurine
 22 Simulations: (not shown)
 
 Metabolite Formatting Information
 ---------------------------------------------------------------------------
 Name=2-hydroxyglutarate Abbr=2HG Scale=1.0 Shift=0.0 PPM Start=-3.1207465171441986 PPM End=12.528391440425866
 Name=alanine Abbr=Ala Scale=1.0 Shift=0.0 PPM Start=-3.1207465171441986 PPM End=12.528391440425866
 Name=choline-trimethyl Abbr=Cho Scale=1.0 Shift=0.0 PPM Start=-3.1207465171441986 PPM End=12.528391440425866
 Name=creatine Abbr=Cr Scale=1.0 Shift=0.0 PPM Start=-3.1207465171441986 PPM End=12.528391440425866
 Name=ethanolamine Abbr=ETA Scale=1.0 Shift=0.0 PPM Start=-3.1207465171441986 PPM End=12.528391440425866
 Name=gaba Abbr=GABA Scale=1.0 Shift=0.0 PPM Start=-3.1207465171441986 PPM End=12.528391440425866
 Name=glucose-beta Abbr=Glc Scale=1.0 Shift=0.0 PPM Start=-3.1207465171441986 PPM End=12.528391440425866
 Name=glutamate Abbr=Glu Scale=1.0 Shift=0.0 PPM Start=-3.1207465171441986 PPM End=12.528391440425866
 Name=glutamine Abbr=Gln Scale=1.0 Shift=0.0 PPM Start=-3.1207465171441986 PPM End=12.528391440425866
 Name=glycine Abbr=Gly Scale=1.0 Shift=0.0 PPM Start=-3.1207465171441986 PPM End=12.528391440425866
 Name=GPC-pcholine2 Abbr=GPC Scale=1.0 Shift=0.0 PPM Start=-3.1207465171441986 PPM End=12.528391440425866
 Name=lactate Abbr=Lac Scale=1.0 Shift=0.0 PPM Start=-3.1207465171441986 PPM End=12.528391440425866
 Name=myo-inositol Abbr=mI Scale=1.0 Shift=0.0 PPM Start=-3.1207465171441986 PPM End=12.528391440425866
 Name=n-acetylaspartate Abbr=NAA Scale=1.0 Shift=0.0 PPM Start=-3.1207465171441986 PPM End=12.528391440425866
 Name=NAAG-truncated Abbr=NAAG Scale=1.0 Shift=0.0 PPM Start=-3.1207465171441986 PPM End=12.528391440425866
 Name=phosphocreatine Abbr=PCr Scale=1.0 Shift=0.0 PPM Start=-3.1207465171441986 PPM End=12.528391440425866
 Name=phosphorylcholine-trimethyl Abbr=PCho Scale=1.0 Shift=0.0 PPM Start=-3.1207465171441986 PPM End=12.528391440425866
 Name=phosphorylethanolamine Abbr=PE Scale=1.0 Shift=0.0 PPM Start=-3.1207465171441986 PPM End=12.528391440425866
 Name=pyruvate Abbr=Pyr Scale=1.0 Shift=0.0 PPM Start=-3.1207465171441986 PPM End=12.528391440425866
 Name=taurine Abbr=Tau Scale=1.0 Shift=0.0 PPM Start=-3.1207465171441986 PPM End=12.528391440425866
 Name=glutathione-glutamate+glutathione-glycine-cysteine Abbr=GSH Scale=1.0 Shift=0.0 PPM Start=-3.1207565171441987 PPM End=12.528
   Mixture of [metab*scale] = glutathione-glutamate*1.000000 + glutathione-glycine-cysteine*1.000000
 
 ===========================================================================
 This LCModel format RAW file was created using the 
 Vespa-Simulation spectral simulation program using 
 the following settings and parameters 
 
 Sweep Width = 2000.0 Hz 
 Vector Size = 2048 points 
 Apodization = 18.0 Hz Lorentzian broadening
 B0 Field    = 127.74 MHz 
 Ref Singlet = False
  
 $NMID ID='Lac'
 FMTDAT='(2E16.6)'
 VOLUME=1.0
 TRAMP=1.0
 $END
    3.370464E+00   -3.871640E-03
    1.209503E+00    2.700108E+00
   -1.712481E+00    1.362659E+00
   -1.011470E+00   -1.510392E+00
    1.837905E+00   -1.277325E+00
    2.154792E+00    1.603479E+00
   -5.734585E-01    2.610340E+00
   -2.173749E+00    3.349454E-01
   -4.607438E-01   -1.571672E+00
    1.570412E+00   -3.059434E-01
    6.725665E-01    1.874980E+00
   -1.676556E+00    1.450496E+00
   -1.849012E+00   -8.959332E-01
    2.512530E-01   -1.597822E+00
    1.282359E+00    1.648336E-01
   -2.058276E-01    1.412347E+00
   -1.697833E+00    1.783700E-01
   -8.308621E-01   -1.559165E+00
    1.007333E+00   -1.167429E+00
    1.050716E+00    5.831099E-01
   -5.394091E-01    9.322928E-01
   -1.134147E+00   -5.260542E-01
    1.777405E-01   -1.397805E+00
    1.322458E+00   -3.404551E-01
    6.125517E-01    9.638525E-01
   -7.129872E-01    5.837565E-01
   -5.875537E-01   -7.084318E-01
    6.793794E-01   -8.147175E-01
    1.051159E+00    3.954965E-01
   -6.833738E-03    1.030390E+00
   -8.229629E-01    2.020955E-01
   -2.229966E-01   -6.995023E-01
    7.259987E-01   -2.912286E-01
    5.106095E-01    7.029506E-01
   -4.929643E-01    7.146747E-01
   -7.338477E-01   -2.195327E-01
    6.864819E-02   -6.356536E-01
    5.984595E-01    2.637869E-02
    6.539329E-02    6.458019E-01
   -6.379398E-01    2.564314E-01
   -4.249530E-01   -4.981964E-01
    3.201650E-01   -4.682484E-01
    4.418843E-01    2.192218E-01
   -1.742507E-01    4.568847E-01
   -5.148245E-01   -8.487933E-02
   -6.788846E-02   -5.230611E-01
    4.422300E-01   -2.003724E-01
    2.538550E-01    3.377640E-01
   -2.769038E-01    2.689443E-01
   -3.100763E-01   -2.396424E-01
    1.664841E-01   -3.697768E-01
    3.904393E-01    5.381771E-02
    4.477916E-02    3.538767E-01
   -3.019511E-01    9.792196E-02
   -1.319894E-01   -2.708562E-01
    2.454318E-01   -1.810463E-01
    2.359412E-01    1.933838E-01
   -1.171766E-01    2.635764E-01
   -2.565614E-01   -4.821432E-02
    2.076430E-03   -2.388136E-01
    2.278411E-01   -3.602591E-02
    8.175401E-02    2.141502E-01
   -1.823048E-01    1.278058E-01
   -1.570866E-01   -1.358184E-01
    9.098437E-02   -1.668697E-01
    1.686391E-01    5.498177E-02
   -2.139596E-02    1.696064E-01
   -1.651867E-01    1.534859E-02
   -5.086054E-02   -1.494798E-01
    1.248485E-01   -7.768619E-02
    9.452500E-02    9.818701E-02
   -7.273198E-02    1.051373E-01
   -1.117478E-01   -4.730766E-02
    2.114756E-02   -1.132609E-01
    1.084957E-01   -4.020785E-03
    2.590868E-02    9.818358E-02
   -8.402845E-02    4.330240E-02
   -5.582761E-02   -6.771106E-02
    5.079476E-02   -6.375144E-02
    6.800675E-02    3.423441E-02
   -1.793115E-02    6.925147E-02
   -6.693687E-02   -1.865294E-03
   -1.249705E-02   -6.042912E-02
    5.093172E-02   -2.313143E-02
    2.984285E-02    4.096681E-02
   -3.169543E-02    3.438244E-02
   -3.775249E-02   -2.211018E-02
    1.150169E-02   -3.876104E-02
    3.613145E-02    1.449008E-03
    5.828898E-03    3.094828E-02
   -2.562397E-02    1.025501E-02
   -1.358144E-02   -2.096762E-02
    1.579313E-02   -1.654870E-02
    1.789477E-02    9.481202E-03
   -3.458929E-03    1.654489E-02
   -1.347933E-02    5.446246E-04
   -2.645554E-03   -1.052225E-02
    8.089039E-03   -4.179007E-03
    5.522407E-03    5.252950E-03
   -1.723305E-03    5.701647E-03
   -4.109406E-03    1.400195E-03
   -3.038128E-03   -1.550792E-03
   -8.059110E-04   -3.388820E-03
    3.273673E-03   -2.778516E-03
    4.882481E-03    2.819001E-03
   -1.451730E-03    7.121469E-03
   -8.753517E-03    1.028706E-03
   -4.024649E-03   -9.201291E-03
    8.629920E-03   -6.849129E-03
    9.383564E-03    7.464399E-03
   -5.731595E-03    1.180510E-02
   -1.396952E-02   -3.164255E-03
   -2.282477E-04   -1.538012E-02
    1.569565E-02   -3.999592E-03
    7.674473E-03    1.501257E-02
   -1.358502E-02    1.111444E-02
   -1.436829E-02   -1.142961E-02
    8.361565E-03   -1.726793E-02
    1.935306E-02    4.399550E-03
    2.195324E-05    2.026288E-02
   -2.008977E-02    4.385800E-03
   -8.561658E-03   -1.915859E-02
    1.747339E-02   -1.272369E-02
    1.673788E-02    1.465960E-02
   -1.061498E-02    1.993516E-02
   -2.176284E-02   -5.950209E-03
    1.404903E-03   -2.245527E-02
    2.260184E-02   -3.027351E-03
    7.873335E-03    2.210278E-02
   -2.014897E-02    1.300645E-02
   -1.732239E-02   -1.648858E-02
    1.209887E-02   -2.002259E-02
    2.166691E-02    8.016016E-03
   -3.918502E-03    2.322009E-02
   -2.433151E-02    1.227844E-03
   -7.205049E-03   -2.358968E-02
    2.065281E-02   -1.231956E-02
    1.557628E-02    1.702684E-02
   -1.401605E-02    1.803883E-02
   -2.106511E-02   -1.079548E-02
    5.766219E-03   -2.388938E-02
    2.442731E-02   -6.270363E-04
    6.024707E-03    2.238085E-02
   -1.988686E-02    9.369245E-03
   -1.237345E-02   -1.840088E-02
    1.644309E-02   -1.671414E-02
    2.106638E-02    1.188910E-02
   -5.555307E-03    2.270638E-02
   -2.154629E-02   -4.498874E-04
   -2.489200E-03   -2.037946E-02
    2.065326E-02   -5.692231E-03
    1.103022E-02    2.013533E-02
   -1.629958E-02    1.651445E-02
   -1.890459E-02   -1.045783E-02
    6.168152E-03   -1.848906E-02
    1.866982E-02    4.059745E-03
   -9.862831E-04    2.070460E-02
   -2.159380E-02    4.943282E-03
   -1.104627E-02   -1.858375E-02
    1.356367E-02   -1.374829E-02
    1.384832E-02    1.048333E-02
   -9.497193E-03    1.524598E-02
   -1.884136E-02   -6.818803E-03
    7.127940E-04   -2.092486E-02
    1.871950E-02   -5.469806E-03
    8.037390E-03    1.472206E-02
   -1.307381E-02    8.392002E-03
   -1.076780E-02   -1.333872E-02
    1.122600E-02   -1.557536E-02
    1.851813E-02    5.316900E-03
    4.574827E-04    1.699680E-02
   -1.408745E-02    2.509818E-03
   -2.869850E-03   -1.391919E-02
    1.540301E-02   -5.927535E-03
