 Vespa-Simulation Mixed Metabolite Output
 This file was generated by Vespa-Simulation. You can learn about and download Vespa here:
https://github.com/vespa-mrs/vespa/tree/main/vespa

 
 Output Path/Filename = /home/stud/casperc/bhome/Project1(DeepFit)/DeepFit-data-generation/DeepFitData_TE_20_lw18_2048p
 Output Loop Values = (1,1,1)  ( Loop 1 = 10, Loop 2 = 10, Loop3 Inactive )
 Output Comment
 ---------------------------------------------------------------------------
 
 
 Experiment Information
 ---------------------------------------------------------------------------
 --- Experiment 18b0168e-f5f0-4bd4-8d52-da93aba06c60 ---
 Name: SyntheticDataSetDeepFitTE20
 Public: False
 Created: 2024-10-08T09:55:07
 Comment (abbr.): 
 PI: Casper Cappelen
 b0: 127.740000
 Peak Search PPM low/high: -15.000000 / 15.000000
 Blend tol. PPM/phase: 0.001500 / 50.000000
 Pulse seq.: 43be13ae-de9a-40a1-9a2d-c872d8bjs100 (PRESS Ideal)
 0 User static parameters: 
 22 Metabolites: 2-hydroxyglutarate, alanine, choline-trimethyl, creatine, ethanolamine, gaba, glucose-beta, glutamate, glutamine, glutathione-glutamate, glutathione-glycine-cysteine, glycine, GPC-pcholine2, lactate, myo-inositol, n-acetylaspartate, NAAG-truncated, phosphocreatine, phosphorylcholine-trimethyl, phosphorylethanolamine, pyruvate, taurine
 22 Simulations: (not shown)
 
 Metabolite Formatting Information
 ---------------------------------------------------------------------------
 Name=2-hydroxyglutarate Abbr=2HG Scale=1.0 Shift=0.0 PPM Start=-3.1207465171441986 PPM End=12.528391440425866
 Name=alanine Abbr=Ala Scale=1.0 Shift=0.0 PPM Start=-3.1207465171441986 PPM End=12.528391440425866
 Name=choline-trimethyl Abbr=Cho Scale=1.0 Shift=0.0 PPM Start=-3.1207465171441986 PPM End=12.528391440425866
 Name=creatine Abbr=Cr Scale=1.0 Shift=0.0 PPM Start=-3.1207465171441986 PPM End=12.528391440425866
 Name=ethanolamine Abbr=ETA Scale=1.0 Shift=0.0 PPM Start=-3.1207465171441986 PPM End=12.528391440425866
 Name=gaba Abbr=GABA Scale=1.0 Shift=0.0 PPM Start=-3.1207465171441986 PPM End=12.528391440425866
 Name=glucose-beta Abbr=Glc Scale=1.0 Shift=0.0 PPM Start=-3.1207465171441986 PPM End=12.528391440425866
 Name=glutamate Abbr=Glu Scale=1.0 Shift=0.0 PPM Start=-3.1207465171441986 PPM End=12.528391440425866
 Name=glutamine Abbr=Gln Scale=1.0 Shift=0.0 PPM Start=-3.1207465171441986 PPM End=12.528391440425866
 Name=glycine Abbr=Gly Scale=1.0 Shift=0.0 PPM Start=-3.1207465171441986 PPM End=12.528391440425866
 Name=GPC-pcholine2 Abbr=GPC Scale=1.0 Shift=0.0 PPM Start=-3.1207465171441986 PPM End=12.528391440425866
 Name=lactate Abbr=Lac Scale=1.0 Shift=0.0 PPM Start=-3.1207465171441986 PPM End=12.528391440425866
 Name=myo-inositol Abbr=mI Scale=1.0 Shift=0.0 PPM Start=-3.1207465171441986 PPM End=12.528391440425866
 Name=n-acetylaspartate Abbr=NAA Scale=1.0 Shift=0.0 PPM Start=-3.1207465171441986 PPM End=12.528391440425866
 Name=NAAG-truncated Abbr=NAAG Scale=1.0 Shift=0.0 PPM Start=-3.1207465171441986 PPM End=12.528391440425866
 Name=phosphocreatine Abbr=PCr Scale=1.0 Shift=0.0 PPM Start=-3.1207465171441986 PPM End=12.528391440425866
 Name=phosphorylcholine-trimethyl Abbr=PCho Scale=1.0 Shift=0.0 PPM Start=-3.1207465171441986 PPM End=12.528391440425866
 Name=phosphorylethanolamine Abbr=PE Scale=1.0 Shift=0.0 PPM Start=-3.1207465171441986 PPM End=12.528391440425866
 Name=pyruvate Abbr=Pyr Scale=1.0 Shift=0.0 PPM Start=-3.1207465171441986 PPM End=12.528391440425866
 Name=taurine Abbr=Tau Scale=1.0 Shift=0.0 PPM Start=-3.1207465171441986 PPM End=12.528391440425866
 Name=glutathione-glutamate+glutathione-glycine-cysteine Abbr=GSH Scale=1.0 Shift=0.0 PPM Start=-3.1207565171441987 PPM End=12.528
   Mixture of [metab*scale] = glutathione-glutamate*1.000000 + glutathione-glycine-cysteine*1.000000
 
 ===========================================================================
 This LCModel format RAW file was created using the 
 Vespa-Simulation spectral simulation program using 
 the following settings and parameters 
 
 Sweep Width = 2000.0 Hz 
 Vector Size = 2048 points 
 Apodization = 18.0 Hz Lorentzian broadening
 B0 Field    = 127.74 MHz 
 Ref Singlet = False
  
 This data has been FFTd to be in the FREQUENCY domain
 
 $NMID ID='Lac'
 FMTDAT='(2E16.6)'
 VOLUME=1.0
 TRAMP=1.0
 $END
    2.212986E+00    4.451728E+00
    2.225864E+00    4.491303E+00
    2.239243E+00    4.531709E+00
    2.253150E+00    4.572973E+00
    2.267612E+00    4.615125E+00
    2.282660E+00    4.658195E+00
    2.298324E+00    4.702215E+00
    2.314638E+00    4.747218E+00
    2.331640E+00    4.793239E+00
    2.349367E+00    4.840313E+00
    2.367862E+00    4.888478E+00
    2.387169E+00    4.937773E+00
    2.407336E+00    4.988239E+00
    2.428413E+00    5.039919E+00
    2.450456E+00    5.092856E+00
    2.473525E+00    5.147098E+00
    2.497681E+00    5.202691E+00
    2.522995E+00    5.259688E+00
    2.549539E+00    5.318140E+00
    2.577394E+00    5.378101E+00
    2.606646E+00    5.439629E+00
    2.637387E+00    5.502784E+00
    2.669720E+00    5.567625E+00
    2.703753E+00    5.634217E+00
    2.739606E+00    5.702626E+00
    2.777408E+00    5.772919E+00
    2.817300E+00    5.845167E+00
    2.859434E+00    5.919442E+00
    2.903978E+00    5.995816E+00
    2.951114E+00    6.074365E+00
    3.001042E+00    6.155164E+00
    3.053980E+00    6.238290E+00
    3.110166E+00    6.323818E+00
    3.169863E+00    6.411822E+00
    3.233358E+00    6.502375E+00
    3.300967E+00    6.595546E+00
    3.373039E+00    6.691396E+00
    3.449958E+00    6.789980E+00
    3.532146E+00    6.891342E+00
    3.620069E+00    6.995511E+00
    3.714242E+00    7.102495E+00
    3.815235E+00    7.212279E+00
    3.923674E+00    7.324816E+00
    4.040254E+00    7.440016E+00
    4.165737E+00    7.557737E+00
    4.300967E+00    7.677770E+00
    4.446866E+00    7.799824E+00
    4.604446E+00    7.923502E+00
    4.774810E+00    8.048274E+00
    4.959147E+00    8.173450E+00
    5.158732E+00    8.298135E+00
    5.374909E+00    8.421186E+00
    5.609066E+00    8.541154E+00
    5.862592E+00    8.656228E+00
    6.136807E+00    8.764158E+00
    6.432863E+00    8.862197E+00
    6.751591E+00    8.947040E+00
    7.093306E+00    9.014804E+00
    7.457540E+00    9.061067E+00
    7.842721E+00    9.081024E+00
    8.245847E+00    9.069822E+00
    8.662227E+00    9.023137E+00
    9.085481E+00    8.938039E+00
    9.508045E+00    8.814044E+00
    9.922473E+00    8.654051E+00
    1.032362E+01    8.464524E+00
    1.071124E+01    8.254055E+00
    1.109167E+01    8.029782E+00
    1.147672E+01    7.792324E+00
    1.187854E+01    7.531639E+00
    1.230141E+01    7.227132E+00
    1.273424E+01    6.854086E+00
    1.314856E+01    6.395105E+00
    1.350517E+01    5.851831E+00
    1.376845E+01    5.250540E+00
    1.392287E+01    4.636655E+00
    1.398310E+01    4.058232E+00
    1.399056E+01    3.545180E+00
    1.399624E+01    3.094975E+00
    1.403741E+01    2.673165E+00
    1.412002E+01    2.229119E+00
    1.421522E+01    1.719716E+00
    1.427203E+01    1.129743E+00
    1.424016E+01    4.792229E-01
    1.409149E+01   -1.856826E-01
    1.383008E+01   -8.128541E-01
    1.348679E+01   -1.364559E+00
    1.310347E+01   -1.828410E+00
    1.271584E+01   -2.215817E+00
    1.234263E+01   -2.551272E+00
    1.198422E+01   -2.859106E+00
    1.162899E+01   -3.153923E+00
    1.126269E+01   -3.437869E+00
    1.087568E+01   -3.703815E+00
    1.046594E+01   -3.941053E+00
    1.003803E+01   -4.140183E+00
    9.600300E+00   -4.295653E+00
    9.162129E+00   -4.406147E+00
    8.731966E+00   -4.473728E+00
    8.316436E+00   -4.502605E+00
    7.920147E+00   -4.498015E+00
    7.545894E+00   -4.465425E+00
    7.195018E+00   -4.410026E+00
    6.867793E+00   -4.336482E+00
    6.563749E+00   -4.248822E+00
    6.281940E+00   -4.150446E+00
    6.021137E+00   -4.044163E+00
    5.779968E+00   -3.932267E+00
    5.557010E+00   -3.816610E+00
    5.350856E+00   -3.698673E+00
    5.160148E+00   -3.579632E+00
    4.983604E+00   -3.460411E+00
    4.820029E+00   -3.341732E+00
    4.668319E+00   -3.224152E+00
    4.527461E+00   -3.108095E+00
    4.396528E+00   -2.993881E+00
    4.274678E+00   -2.881743E+00
    4.161145E+00   -2.771848E+00
    4.055233E+00   -2.664308E+00
    3.956312E+00   -2.559194E+00
    3.863809E+00   -2.456540E+00
    3.777206E+00   -2.356356E+00
    3.696033E+00   -2.258631E+00
    3.619863E+00   -2.163337E+00
    3.548309E+00   -2.070434E+00
    3.481018E+00   -1.979874E+00
    3.417670E+00   -1.891603E+00
    3.357973E+00   -1.805559E+00
    3.301660E+00   -1.721679E+00
    3.248489E+00   -1.639897E+00
    3.198236E+00   -1.560146E+00
    3.150699E+00   -1.482360E+00
    3.105692E+00   -1.406472E+00
    3.063044E+00   -1.332415E+00
    3.022597E+00   -1.260124E+00
    2.984207E+00   -1.189537E+00
    2.947741E+00   -1.120590E+00
    2.913076E+00   -1.053224E+00
    2.880099E+00   -9.873788E-01
    2.848707E+00   -9.229974E-01
    2.818802E+00   -8.600247E-01
    2.790297E+00   -7.984074E-01
    2.763108E+00   -7.380947E-01
    2.737160E+00   -6.790374E-01
    2.712381E+00   -6.211884E-01
    2.688705E+00   -5.645024E-01
    2.666071E+00   -5.089354E-01
    2.644421E+00   -4.544454E-01
    2.623701E+00   -4.009920E-01
    2.603864E+00   -3.485367E-01
    2.584861E+00   -2.970426E-01
    2.566648E+00   -2.464743E-01
    2.549185E+00   -1.967972E-01
    2.532432E+00   -1.479777E-01
    2.516352E+00   -9.998254E-02
    2.500913E+00   -5.277944E-02
    2.486084E+00   -6.337617E-03
    2.471839E+00    3.937170E-02
    2.458152E+00    8.437495E-02
    2.444997E+00    1.286964E-01
    2.432351E+00    1.723591E-01
    2.420190E+00    2.153851E-01
    2.408490E+00    2.577967E-01
    2.397229E+00    2.996165E-01
    2.386385E+00    3.408668E-01
    2.375941E+00    3.815704E-01
    2.365877E+00    4.217492E-01
    2.356180E+00    4.614242E-01
    2.346836E+00    5.006151E-01
    2.337831E+00    5.393400E-01
    2.329156E+00    5.776152E-01
    2.320797E+00    6.154553E-01
