 Vespa-Simulation Mixed Metabolite Output
 This file was generated by Vespa-Simulation. You can learn about and download Vespa here:
https://github.com/vespa-mrs/vespa/tree/main/vespa

 
 Output Path/Filename = /home/stud/casperc/bhome/Project1(DeepFit)/DeepFit-data-generation/DeepFitData_TE_20_lw18_2048p
 Output Loop Values = (1,1,1)  ( Loop 1 = 10, Loop 2 = 10, Loop3 Inactive )
 Output Comment
 ---------------------------------------------------------------------------
 
 
 Experiment Information
 ---------------------------------------------------------------------------
 --- Experiment 18b0168e-f5f0-4bd4-8d52-da93aba06c60 ---
 Name: SyntheticDataSetDeepFitTE20
 Public: False
 Created: 2024-10-08T09:55:07
 Comment (abbr.): 
 PI: Casper Cappelen
 b0: 127.740000
 Peak Search PPM low/high: -15.000000 / 15.000000
 Blend tol. PPM/phase: 0.001500 / 50.000000
 Pulse seq.: 43be13ae-de9a-40a1-9a2d-c872d8bjs100 (PRESS Ideal)
 0 User static parameters: 
 22 Metabolites: 2-hydroxyglutarate, alanine, choline-trimethyl, creatine, ethanolamine, gaba, glucose-beta, glutamate, glutamine, glutathione-glutamate, glutathione-glycine-cysteine, glycine, GPC-pcholine2, lactate, myo-inositol, n-acetylaspartate, NAAG-truncated, phosphocreatine, phosphorylcholine-trimethyl, phosphorylethanolamine, pyruvate, taurine
 22 Simulations: (not shown)
 
 Metabolite Formatting Information
 ---------------------------------------------------------------------------
 Name=2-hydroxyglutarate Abbr=2HG Scale=1.0 Shift=0.0 PPM Start=-3.1207465171441986 PPM End=12.528391440425866
 Name=alanine Abbr=Ala Scale=1.0 Shift=0.0 PPM Start=-3.1207465171441986 PPM End=12.528391440425866
 Name=choline-trimethyl Abbr=Cho Scale=1.0 Shift=0.0 PPM Start=-3.1207465171441986 PPM End=12.528391440425866
 Name=creatine Abbr=Cr Scale=1.0 Shift=0.0 PPM Start=-3.1207465171441986 PPM End=12.528391440425866
 Name=ethanolamine Abbr=ETA Scale=1.0 Shift=0.0 PPM Start=-3.1207465171441986 PPM End=12.528391440425866
 Name=gaba Abbr=GABA Scale=1.0 Shift=0.0 PPM Start=-3.1207465171441986 PPM End=12.528391440425866
 Name=glucose-beta Abbr=Glc Scale=1.0 Shift=0.0 PPM Start=-3.1207465171441986 PPM End=12.528391440425866
 Name=glutamate Abbr=Glu Scale=1.0 Shift=0.0 PPM Start=-3.1207465171441986 PPM End=12.528391440425866
 Name=glutamine Abbr=Gln Scale=1.0 Shift=0.0 PPM Start=-3.1207465171441986 PPM End=12.528391440425866
 Name=glycine Abbr=Gly Scale=1.0 Shift=0.0 PPM Start=-3.1207465171441986 PPM End=12.528391440425866
 Name=GPC-pcholine2 Abbr=GPC Scale=1.0 Shift=0.0 PPM Start=-3.1207465171441986 PPM End=12.528391440425866
 Name=lactate Abbr=Lac Scale=1.0 Shift=0.0 PPM Start=-3.1207465171441986 PPM End=12.528391440425866
 Name=myo-inositol Abbr=mI Scale=1.0 Shift=0.0 PPM Start=-3.1207465171441986 PPM End=12.528391440425866
 Name=n-acetylaspartate Abbr=NAA Scale=1.0 Shift=0.0 PPM Start=-3.1207465171441986 PPM End=12.528391440425866
 Name=NAAG-truncated Abbr=NAAG Scale=1.0 Shift=0.0 PPM Start=-3.1207465171441986 PPM End=12.528391440425866
 Name=phosphocreatine Abbr=PCr Scale=1.0 Shift=0.0 PPM Start=-3.1207465171441986 PPM End=12.528391440425866
 Name=phosphorylcholine-trimethyl Abbr=PCho Scale=1.0 Shift=0.0 PPM Start=-3.1207465171441986 PPM End=12.528391440425866
 Name=phosphorylethanolamine Abbr=PE Scale=1.0 Shift=0.0 PPM Start=-3.1207465171441986 PPM End=12.528391440425866
 Name=pyruvate Abbr=Pyr Scale=1.0 Shift=0.0 PPM Start=-3.1207465171441986 PPM End=12.528391440425866
 Name=taurine Abbr=Tau Scale=1.0 Shift=0.0 PPM Start=-3.1207465171441986 PPM End=12.528391440425866
 Name=glutathione-glutamate+glutathione-glycine-cysteine Abbr=GSH Scale=1.0 Shift=0.0 PPM Start=-3.1207565171441987 PPM End=12.528
   Mixture of [metab*scale] = glutathione-glutamate*1.000000 + glutathione-glycine-cysteine*1.000000
 
 ===========================================================================
 This LCModel format RAW file was created using the 
 Vespa-Simulation spectral simulation program using 
 the following settings and parameters 
 
 Sweep Width = 2000.0 Hz 
 Vector Size = 2048 points 
 Apodization = 18.0 Hz Lorentzian broadening
 B0 Field    = 127.74 MHz 
 Ref Singlet = False
  
 $NMID ID='mI'
 FMTDAT='(2E16.6)'
 VOLUME=1.0
 TRAMP=1.0
 $END
    5.880550E+00    4.496265E-03
    5.155176E+00    2.440228E+00
    3.475384E+00    4.240536E+00
    1.256962E+00    5.070422E+00
   -9.930061E-01    4.832686E+00
   -2.799870E+00    3.673974E+00
   -3.828569E+00    1.931834E+00
   -3.948734E+00    4.032043E-02
   -3.245255E+00   -1.579170E+00
   -1.976543E+00   -2.613547E+00
   -4.958466E-01   -2.918053E+00
    8.410581E-01   -2.529604E+00
    1.757852E+00   -1.635690E+00
    2.110527E+00   -5.116590E-01
    1.902102E+00    5.541846E-01
    1.260931E+00    1.327914E+00
    3.931465E-01    1.674677E+00
   -4.752557E-01    1.573536E+00
   -1.151351E+00    1.104027E+00
   -1.511583E+00    4.124395E-01
   -1.516072E+00   -3.303473E-01
   -1.202235E+00   -9.682267E-01
   -6.635010E-01   -1.388091E+00
   -2.134391E-02   -1.533327E+00
    6.017132E-01   -1.403406E+00
    1.102849E+00   -1.043483E+00
    1.411301E+00   -5.290190E-01
    1.492904E+00    5.018868E-02
    1.348919E+00    6.038853E-01
    1.011484E+00    1.052254E+00
    5.372431E-01    1.334216E+00
   -2.356284E-04    1.413623E+00
   -5.195528E-01    1.283631E+00
   -9.420994E-01    9.684438E-01
   -1.203848E+00    5.212005E-01
   -1.266374E+00    1.715686E-02
   -1.125044E+00   -4.581640E-01
   -8.115394E-01   -8.241157E-01
   -3.893112E-01   -1.020645E+00
    5.824093E-02   -1.021026E+00
    4.445831E-01   -8.379436E-01
    6.985219E-01   -5.210550E-01
    7.795392E-01   -1.460176E-01
    6.863851E-01    2.027811E-01
    4.563559E-01    4.514824E-01
    1.554381E-01    5.534835E-01
   -1.382296E-01    4.992024E-01
   -3.534600E-01    3.167075E-01
   -4.427114E-01    6.310116E-02
   -3.923393E-01   -1.907995E-01
   -2.240568E-01   -3.785046E-01
    1.238700E-02   -4.538306E-01
    2.530535E-01   -4.010457E-01
    4.362564E-01   -2.368807E-01
    5.174667E-01   -4.446692E-03
    4.789452E-01    2.388288E-01
    3.322114E-01    4.359321E-01
    1.132770E-01    5.436706E-01
   -1.276071E-01    5.417576E-01
   -3.386414E-01    4.356234E-01
   -4.783340E-01    2.529961E-01
   -5.238509E-01    3.562062E-02
   -4.741510E-01   -1.712923E-01
   -3.478836E-01   -3.292886E-01
   -1.771312E-01   -4.140797E-01
    1.010748E-03   -4.189527E-01
    1.528727E-01   -3.538664E-01
    2.546217E-01   -2.410767E-01
    2.957353E-01   -1.088137E-01
    2.790995E-01    1.533345E-02
    2.183202E-01    1.098789E-01
    1.332787E-01    1.626902E-01
    4.518056E-02    1.718777E-01
   -2.785137E-02    1.444745E-01
   -7.378964E-02    9.358995E-02
   -8.808348E-02    3.489540E-02
   -7.338930E-02   -1.680705E-02
   -3.801507E-02   -5.032737E-02
    6.430327E-03   -5.975285E-02
    4.766194E-02   -4.497156E-02
    7.515477E-02   -1.110189E-02
    8.202882E-02    3.294518E-02
    6.613156E-02    7.643441E-02
    3.022824E-02    1.089879E-01
   -1.871787E-02    1.226008E-01
   -7.098337E-02    1.131511E-01
   -1.160339E-01    8.117501E-02
   -1.445993E-01    3.174763E-02
   -1.505088E-01   -2.652779E-02
   -1.319071E-01   -8.318962E-02
   -9.163317E-02   -1.279922E-01
   -3.665272E-02   -1.529208E-01
    2.335725E-02   -1.537585E-01
    7.792587E-02   -1.308543E-01
    1.178727E-01   -8.897010E-02
    1.370795E-01   -3.620530E-02
    1.335611E-01    1.770320E-02
    1.096784E-01    6.337932E-02
    7.143683E-02    9.363232E-02
    2.706247E-02    1.047513E-01
   -1.477631E-02    9.698626E-02
   -4.674404E-02    7.420412E-02
   -6.420409E-02    4.280864E-02
   -6.593003E-02    1.020895E-02
   -5.403799E-02   -1.678574E-02
   -3.324134E-02   -3.332902E-02
   -9.610732E-03   -3.737328E-02
    1.083778E-02   -2.983779E-02
    2.343226E-02   -1.414810E-02
    2.574183E-02    4.722144E-03
    1.792841E-02    2.146369E-02
    2.521906E-03    3.161633E-02
   -1.628811E-02    3.249641E-02
   -3.366496E-02    2.368495E-02
   -4.521482E-02    7.005560E-03
   -4.791470E-02   -1.395989E-02
   -4.071581E-02   -3.470206E-02
   -2.470089E-02   -5.077129E-02
   -2.803144E-03   -5.869842E-02
    2.084764E-02   -5.668929E-02
    4.179351E-02   -4.494701E-02
    5.615701E-02   -2.557496E-02
    6.138623E-02   -2.110240E-03
    5.672008E-02    2.121862E-02
    4.327297E-02    4.033767E-02
    2.374159E-02    5.211372E-02
    1.821045E-03    5.490728E-02
   -1.855438E-02    4.881822E-02
   -3.397516E-02    3.557085E-02
   -4.217516E-02    1.809112E-02
   -4.239603E-02   -1.367282E-04
   -3.542278E-02   -1.576240E-02
   -2.333028E-02   -2.621017E-02
   -8.987976E-03   -3.011709E-02
    4.554503E-03   -2.750747E-02
    1.467478E-02   -1.968626E-02
    1.966163E-02   -8.891205E-03
    1.899103E-02    2.212009E-03
    1.335536E-02    1.109186E-02
    4.454840E-03    1.584495E-02
   -5.393904E-03    1.555452E-02
   -1.375402E-02    1.043740E-02
   -1.857126E-02    1.766915E-03
   -1.859047E-02   -8.408736E-03
   -1.361096E-02   -1.769579E-02
   -4.528300E-03   -2.385568E-02
    6.835029E-03   -2.526956E-02
    1.809503E-02   -2.129504E-02
    2.679238E-02   -1.242727E-02
    3.090960E-02   -2.314515E-04
    2.931446E-02    1.295059E-02
    2.203511E-02    2.446806E-02
    1.029266E-02    3.192027E-02
   -3.711659E-03    3.367087E-02
   -1.724052E-02    2.923057E-02
   -2.759472E-02    1.939402E-02
   -3.269880E-02    6.098614E-03
   -3.156438E-02   -7.975990E-03
   -2.452023E-02   -1.998491E-02
   -1.314968E-02   -2.754237E-02
    6.548888E-05   -2.925327E-02
    1.229636E-02   -2.501186E-02
    2.101081E-02   -1.601341E-02
    2.453885E-02   -4.458113E-03
    2.243117E-02    6.974446E-03
    1.552489E-02    1.575371E-02
    5.705748E-03    2.007599E-02
   -4.575866E-03    1.925498E-02
   -1.289581E-02    1.382818E-02
   -1.742596E-02    5.373371E-03
   -1.733068E-02   -3.918094E-03
   -1.290644E-02   -1.179157E-02
   -5.442790E-03   -1.646290E-02
    3.144088E-03   -1.700617E-02
