 Vespa-Simulation Mixed Metabolite Output
 This file was generated by Vespa-Simulation. You can learn about and download Vespa here:
https://github.com/vespa-mrs/vespa/tree/main/vespa

 
 Output Path/Filename = /home/stud/casperc/bhome/Project1(DeepFit)/DeepFit-data-generation/DeepFitData_TE_20_lw18_2048p
 Output Loop Values = (1,1,1)  ( Loop 1 = 10, Loop 2 = 10, Loop3 Inactive )
 Output Comment
 ---------------------------------------------------------------------------
 
 
 Experiment Information
 ---------------------------------------------------------------------------
 --- Experiment 18b0168e-f5f0-4bd4-8d52-da93aba06c60 ---
 Name: SyntheticDataSetDeepFitTE20
 Public: False
 Created: 2024-10-08T09:55:07
 Comment (abbr.): 
 PI: Casper Cappelen
 b0: 127.740000
 Peak Search PPM low/high: -15.000000 / 15.000000
 Blend tol. PPM/phase: 0.001500 / 50.000000
 Pulse seq.: 43be13ae-de9a-40a1-9a2d-c872d8bjs100 (PRESS Ideal)
 0 User static parameters: 
 22 Metabolites: 2-hydroxyglutarate, alanine, choline-trimethyl, creatine, ethanolamine, gaba, glucose-beta, glutamate, glutamine, glutathione-glutamate, glutathione-glycine-cysteine, glycine, GPC-pcholine2, lactate, myo-inositol, n-acetylaspartate, NAAG-truncated, phosphocreatine, phosphorylcholine-trimethyl, phosphorylethanolamine, pyruvate, taurine
 22 Simulations: (not shown)
 
 Metabolite Formatting Information
 ---------------------------------------------------------------------------
 Name=2-hydroxyglutarate Abbr=2HG Scale=1.0 Shift=0.0 PPM Start=-3.1207465171441986 PPM End=12.528391440425866
 Name=alanine Abbr=Ala Scale=1.0 Shift=0.0 PPM Start=-3.1207465171441986 PPM End=12.528391440425866
 Name=choline-trimethyl Abbr=Cho Scale=1.0 Shift=0.0 PPM Start=-3.1207465171441986 PPM End=12.528391440425866
 Name=creatine Abbr=Cr Scale=1.0 Shift=0.0 PPM Start=-3.1207465171441986 PPM End=12.528391440425866
 Name=ethanolamine Abbr=ETA Scale=1.0 Shift=0.0 PPM Start=-3.1207465171441986 PPM End=12.528391440425866
 Name=gaba Abbr=GABA Scale=1.0 Shift=0.0 PPM Start=-3.1207465171441986 PPM End=12.528391440425866
 Name=glucose-beta Abbr=Glc Scale=1.0 Shift=0.0 PPM Start=-3.1207465171441986 PPM End=12.528391440425866
 Name=glutamate Abbr=Glu Scale=1.0 Shift=0.0 PPM Start=-3.1207465171441986 PPM End=12.528391440425866
 Name=glutamine Abbr=Gln Scale=1.0 Shift=0.0 PPM Start=-3.1207465171441986 PPM End=12.528391440425866
 Name=glycine Abbr=Gly Scale=1.0 Shift=0.0 PPM Start=-3.1207465171441986 PPM End=12.528391440425866
 Name=GPC-pcholine2 Abbr=GPC Scale=1.0 Shift=0.0 PPM Start=-3.1207465171441986 PPM End=12.528391440425866
 Name=lactate Abbr=Lac Scale=1.0 Shift=0.0 PPM Start=-3.1207465171441986 PPM End=12.528391440425866
 Name=myo-inositol Abbr=mI Scale=1.0 Shift=0.0 PPM Start=-3.1207465171441986 PPM End=12.528391440425866
 Name=n-acetylaspartate Abbr=NAA Scale=1.0 Shift=0.0 PPM Start=-3.1207465171441986 PPM End=12.528391440425866
 Name=NAAG-truncated Abbr=NAAG Scale=1.0 Shift=0.0 PPM Start=-3.1207465171441986 PPM End=12.528391440425866
 Name=phosphocreatine Abbr=PCr Scale=1.0 Shift=0.0 PPM Start=-3.1207465171441986 PPM End=12.528391440425866
 Name=phosphorylcholine-trimethyl Abbr=PCho Scale=1.0 Shift=0.0 PPM Start=-3.1207465171441986 PPM End=12.528391440425866
 Name=phosphorylethanolamine Abbr=PE Scale=1.0 Shift=0.0 PPM Start=-3.1207465171441986 PPM End=12.528391440425866
 Name=pyruvate Abbr=Pyr Scale=1.0 Shift=0.0 PPM Start=-3.1207465171441986 PPM End=12.528391440425866
 Name=taurine Abbr=Tau Scale=1.0 Shift=0.0 PPM Start=-3.1207465171441986 PPM End=12.528391440425866
 Name=glutathione-glutamate+glutathione-glycine-cysteine Abbr=GSH Scale=1.0 Shift=0.0 PPM Start=-3.1207565171441987 PPM End=12.528
   Mixture of [metab*scale] = glutathione-glutamate*1.000000 + glutathione-glycine-cysteine*1.000000
 
 ===========================================================================
 This LCModel format RAW file was created using the 
 Vespa-Simulation spectral simulation program using 
 the following settings and parameters 
 
 Sweep Width = 2000.0 Hz 
 Vector Size = 2048 points 
 Apodization = 18.0 Hz Lorentzian broadening
 B0 Field    = 127.74 MHz 
 Ref Singlet = False
  
 This data has been FFTd to be in the FREQUENCY domain
 
 $NMID ID='mI'
 FMTDAT='(2E16.6)'
 VOLUME=1.0
 TRAMP=1.0
 $END
    3.922258E+00    1.387126E+01
    3.939579E+00    1.398448E+01
    3.957407E+00    1.409963E+01
    3.975764E+00    1.421675E+01
    3.994671E+00    1.433591E+01
    4.014154E+00    1.445717E+01
    4.034236E+00    1.458058E+01
    4.054944E+00    1.470621E+01
    4.076307E+00    1.483412E+01
    4.098355E+00    1.496439E+01
    4.121118E+00    1.509709E+01
    4.144632E+00    1.523228E+01
    4.168933E+00    1.537006E+01
    4.194058E+00    1.551049E+01
    4.220048E+00    1.565367E+01
    4.246946E+00    1.579969E+01
    4.274800E+00    1.594863E+01
    4.303657E+00    1.610060E+01
    4.333570E+00    1.625570E+01
    4.364596E+00    1.641404E+01
    4.396794E+00    1.657572E+01
    4.430230E+00    1.674087E+01
    4.464972E+00    1.690961E+01
    4.501095E+00    1.708207E+01
    4.538678E+00    1.725839E+01
    4.577808E+00    1.743870E+01
    4.618577E+00    1.762318E+01
    4.661086E+00    1.781196E+01
    4.705443E+00    1.800523E+01
    4.751764E+00    1.820316E+01
    4.800178E+00    1.840594E+01
    4.850821E+00    1.861376E+01
    4.903844E+00    1.882683E+01
    4.959409E+00    1.904539E+01
    5.017694E+00    1.926965E+01
    5.078892E+00    1.949988E+01
    5.143217E+00    1.973633E+01
    5.210899E+00    1.997929E+01
    5.282195E+00    2.022904E+01
    5.357383E+00    2.048591E+01
    5.436774E+00    2.075023E+01
    5.520707E+00    2.102235E+01
    5.609560E+00    2.130266E+01
    5.703749E+00    2.159155E+01
    5.803740E+00    2.188945E+01
    5.910047E+00    2.219682E+01
    6.023245E+00    2.251414E+01
    6.143979E+00    2.284191E+01
    6.272967E+00    2.318069E+01
    6.411017E+00    2.353104E+01
    6.559040E+00    2.389358E+01
    6.718062E+00    2.426895E+01
    6.889244E+00    2.465782E+01
    7.073902E+00    2.506090E+01
    7.273534E+00    2.547893E+01
    7.489847E+00    2.591266E+01
    7.724790E+00    2.636286E+01
    7.980599E+00    2.683030E+01
    8.259838E+00    2.731574E+01
    8.565458E+00    2.781989E+01
    8.900862E+00    2.834339E+01
    9.269980E+00    2.888674E+01
    9.677357E+00    2.945025E+01
    1.012826E+01    3.003393E+01
    1.062877E+01    3.063739E+01
    1.118595E+01    3.125960E+01
    1.180795E+01    3.189874E+01
    1.250415E+01    3.255178E+01
    1.328529E+01    3.321411E+01
    1.416354E+01    3.387889E+01
    1.515247E+01    3.453629E+01
    1.626677E+01    3.517241E+01
    1.752166E+01    3.576809E+01
    1.893173E+01    3.629741E+01
    2.050893E+01    3.672624E+01
    2.225956E+01    3.701109E+01
    2.417992E+01    3.709887E+01
    2.625089E+01    3.692835E+01
    2.843204E+01    3.643455E+01
    3.065676E+01    3.555658E+01
    3.283077E+01    3.424911E+01
    3.483617E+01    3.249548E+01
    3.654245E+01    3.031950E+01
    3.782347E+01    2.779193E+01
    3.857751E+01    2.502863E+01
    3.874566E+01    2.217883E+01
    3.832334E+01    1.940539E+01
    3.736124E+01    1.686138E+01
    3.595531E+01    1.466939E+01
    3.422928E+01    1.290836E+01
    3.231453E+01    1.161003E+01
    3.033229E+01    1.076414E+01
    2.838152E+01    1.032973E+01
    2.653374E+01    1.024840E+01
    2.483390E+01    1.045613E+01
    2.330493E+01    1.089177E+01
    2.195355E+01    1.150183E+01
    2.077588E+01    1.224235E+01
    1.976186E+01    1.307886E+01
    1.889855E+01    1.398535E+01
    1.817227E+01    1.494281E+01
    1.756990E+01    1.593777E+01
    1.707959E+01    1.696098E+01
    1.669103E+01    1.800632E+01
    1.639547E+01    1.906998E+01
    1.618575E+01    2.014983E+01
    1.605610E+01    2.124504E+01
    1.600213E+01    2.235571E+01
    1.602073E+01    2.348266E+01
    1.611001E+01    2.462721E+01
    1.626929E+01    2.579103E+01
    1.649907E+01    2.697598E+01
    1.680101E+01    2.818397E+01
    1.717794E+01    2.941679E+01
    1.763391E+01    3.067603E+01
    1.817421E+01    3.196286E+01
    1.880542E+01    3.327780E+01
    1.953545E+01    3.462048E+01
    2.037357E+01    3.598926E+01
    2.133030E+01    3.738077E+01
    2.241719E+01    3.878936E+01
    2.364639E+01    4.020647E+01
    2.502981E+01    4.162008E+01
    2.657787E+01    4.301429E+01
    2.829781E+01    4.436951E+01
    3.019171E+01    4.566361E+01
    3.225489E+01    4.687446E+01
    3.447580E+01    4.798393E+01
    3.683865E+01    4.898244E+01
    3.932973E+01    4.987186E+01
    4.194601E+01    5.066378E+01
    4.470242E+01    5.137131E+01
    4.763280E+01    5.199606E+01
    5.078175E+01    5.251537E+01
    5.418876E+01    5.287624E+01
    5.787019E+01    5.299972E+01
    6.180552E+01    5.279601E+01
    6.593404E+01    5.218681E+01
    7.016593E+01    5.112798E+01
    7.440769E+01    4.962326E+01
    7.859478E+01    4.771896E+01
    8.271713E+01    4.547583E+01
    8.682162E+01    4.292591E+01
    9.098372E+01    4.003275E+01
    9.525562E+01    3.667550E+01
    9.960953E+01    3.266826E+01
    1.038983E+02    2.781276E+01
    1.078512E+02    2.197029E+01
    1.111123E+02    1.513003E+01
    1.133156E+02    7.448071E+00
    1.141727E+02   -7.612130E-01
    1.135425E+02   -9.081070E+00
    1.114595E+02   -1.707481E+01
    1.081158E+02   -2.436583E+01
    1.038104E+02   -3.069322E+01
    9.888410E+01   -3.593392E+01
    9.365886E+01   -4.009280E+01
    8.839340E+01   -4.326910E+01
    8.326330E+01   -4.561187E+01
    7.836424E+01   -4.727803E+01
    7.373148E+01   -4.840279E+01
    6.936562E+01   -4.908601E+01
    6.525621E+01   -4.939274E+01
    6.139796E+01   -4.936296E+01
    5.779790E+01   -4.902485E+01
    5.447432E+01   -4.840677E+01
    5.145076E+01   -4.754454E+01
    4.874872E+01   -4.648316E+01
    4.638229E+01   -4.527466E+01
    4.435563E+01   -4.397425E+01
    4.266279E+01   -4.263696E+01
    4.128851E+01   -4.131539E+01
    4.020899E+01   -4.005827E+01
