 Vespa-Simulation Mixed Metabolite Output
 This file was generated by Vespa-Simulation. You can learn about and download Vespa here:
https://github.com/vespa-mrs/vespa/tree/main/vespa

 
 Output Path/Filename = /home/stud/casperc/bhome/Project1(DeepFit)/DeepFit-data-generation/DeepFitData_TE_20_lw18_2048p
 Output Loop Values = (1,1,1)  ( Loop 1 = 10, Loop 2 = 10, Loop3 Inactive )
 Output Comment
 ---------------------------------------------------------------------------
 
 
 Experiment Information
 ---------------------------------------------------------------------------
 --- Experiment 18b0168e-f5f0-4bd4-8d52-da93aba06c60 ---
 Name: SyntheticDataSetDeepFitTE20
 Public: False
 Created: 2024-10-08T09:55:07
 Comment (abbr.): 
 PI: Casper Cappelen
 b0: 127.740000
 Peak Search PPM low/high: -15.000000 / 15.000000
 Blend tol. PPM/phase: 0.001500 / 50.000000
 Pulse seq.: 43be13ae-de9a-40a1-9a2d-c872d8bjs100 (PRESS Ideal)
 0 User static parameters: 
 22 Metabolites: 2-hydroxyglutarate, alanine, choline-trimethyl, creatine, ethanolamine, gaba, glucose-beta, glutamate, glutamine, glutathione-glutamate, glutathione-glycine-cysteine, glycine, GPC-pcholine2, lactate, myo-inositol, n-acetylaspartate, NAAG-truncated, phosphocreatine, phosphorylcholine-trimethyl, phosphorylethanolamine, pyruvate, taurine
 22 Simulations: (not shown)
 
 Metabolite Formatting Information
 ---------------------------------------------------------------------------
 Name=2-hydroxyglutarate Abbr=2HG Scale=1.0 Shift=0.0 PPM Start=-3.1207465171441986 PPM End=12.528391440425866
 Name=alanine Abbr=Ala Scale=1.0 Shift=0.0 PPM Start=-3.1207465171441986 PPM End=12.528391440425866
 Name=choline-trimethyl Abbr=Cho Scale=1.0 Shift=0.0 PPM Start=-3.1207465171441986 PPM End=12.528391440425866
 Name=creatine Abbr=Cr Scale=1.0 Shift=0.0 PPM Start=-3.1207465171441986 PPM End=12.528391440425866
 Name=ethanolamine Abbr=ETA Scale=1.0 Shift=0.0 PPM Start=-3.1207465171441986 PPM End=12.528391440425866
 Name=gaba Abbr=GABA Scale=1.0 Shift=0.0 PPM Start=-3.1207465171441986 PPM End=12.528391440425866
 Name=glucose-beta Abbr=Glc Scale=1.0 Shift=0.0 PPM Start=-3.1207465171441986 PPM End=12.528391440425866
 Name=glutamate Abbr=Glu Scale=1.0 Shift=0.0 PPM Start=-3.1207465171441986 PPM End=12.528391440425866
 Name=glutamine Abbr=Gln Scale=1.0 Shift=0.0 PPM Start=-3.1207465171441986 PPM End=12.528391440425866
 Name=glycine Abbr=Gly Scale=1.0 Shift=0.0 PPM Start=-3.1207465171441986 PPM End=12.528391440425866
 Name=GPC-pcholine2 Abbr=GPC Scale=1.0 Shift=0.0 PPM Start=-3.1207465171441986 PPM End=12.528391440425866
 Name=lactate Abbr=Lac Scale=1.0 Shift=0.0 PPM Start=-3.1207465171441986 PPM End=12.528391440425866
 Name=myo-inositol Abbr=mI Scale=1.0 Shift=0.0 PPM Start=-3.1207465171441986 PPM End=12.528391440425866
 Name=n-acetylaspartate Abbr=NAA Scale=1.0 Shift=0.0 PPM Start=-3.1207465171441986 PPM End=12.528391440425866
 Name=NAAG-truncated Abbr=NAAG Scale=1.0 Shift=0.0 PPM Start=-3.1207465171441986 PPM End=12.528391440425866
 Name=phosphocreatine Abbr=PCr Scale=1.0 Shift=0.0 PPM Start=-3.1207465171441986 PPM End=12.528391440425866
 Name=phosphorylcholine-trimethyl Abbr=PCho Scale=1.0 Shift=0.0 PPM Start=-3.1207465171441986 PPM End=12.528391440425866
 Name=phosphorylethanolamine Abbr=PE Scale=1.0 Shift=0.0 PPM Start=-3.1207465171441986 PPM End=12.528391440425866
 Name=pyruvate Abbr=Pyr Scale=1.0 Shift=0.0 PPM Start=-3.1207465171441986 PPM End=12.528391440425866
 Name=taurine Abbr=Tau Scale=1.0 Shift=0.0 PPM Start=-3.1207465171441986 PPM End=12.528391440425866
 Name=glutathione-glutamate+glutathione-glycine-cysteine Abbr=GSH Scale=1.0 Shift=0.0 PPM Start=-3.1207565171441987 PPM End=12.528
   Mixture of [metab*scale] = glutathione-glutamate*1.000000 + glutathione-glycine-cysteine*1.000000
 
 ===========================================================================
 This LCModel format RAW file was created using the 
 Vespa-Simulation spectral simulation program using 
 the following settings and parameters 
 
 Sweep Width = 2000.0 Hz 
 Vector Size = 2048 points 
 Apodization = 18.0 Hz Lorentzian broadening
 B0 Field    = 127.74 MHz 
 Ref Singlet = False
  
 $NMID ID='NAA'
 FMTDAT='(2E16.6)'
 VOLUME=1.0
 TRAMP=1.0
 $END
    6.526743E+00    1.608018E-02
    3.569788E+00    3.143876E+00
   -1.790668E+00    3.713544E+00
   -4.153441E+00    1.400450E+00
   -1.742998E+00   -1.756353E+00
    2.267361E+00   -2.957916E+00
    3.721749E+00   -1.144624E+00
    1.807944E+00    1.898154E+00
   -8.379263E-01    3.224894E+00
   -1.562462E+00    1.736155E+00
   -3.576608E-01   -7.062424E-01
    8.424273E-01   -1.409236E+00
    6.893369E-01    1.256286E-01
   -3.253611E-01    1.778272E+00
   -8.660250E-01    1.461134E+00
   -3.720357E-01   -3.607242E-01
    5.113287E-01   -1.315017E+00
    7.861820E-01   -1.003075E-01
    9.558444E-02    1.867119E+00
   -1.017027E+00    2.139053E+00
   -1.590583E+00    1.887683E-01
   -1.029288E+00   -1.921058E+00
    3.246637E-01   -1.906709E+00
    1.317106E+00    1.648171E-01
    9.323893E-01    2.034399E+00
   -6.326422E-01    1.795445E+00
   -1.935458E+00   -1.478089E-01
   -1.624808E+00   -1.744093E+00
    9.053188E-02   -1.559705E+00
    1.516841E+00   -8.239870E-02
    1.213955E+00    1.085530E+00
   -4.359022E-01    9.464979E-01
   -1.628482E+00   -1.073411E-01
   -1.120419E+00   -9.579304E-01
    4.342542E-01   -9.065681E-01
    1.295911E+00   -1.757450E-01
    6.205322E-01    4.719622E-01
   -6.750202E-01    4.656768E-01
   -1.073381E+00   -1.187266E-01
   -1.975722E-01   -6.727460E-01
    8.701870E-01   -6.217799E-01
    9.274250E-01    1.283281E-02
   -2.434633E-03    5.897773E-01
   -8.132571E-01    4.754021E-01
   -6.309392E-01   -2.533177E-01
    2.703119E-01   -8.177047E-01
    8.876647E-01   -5.537162E-01
    6.197986E-01    3.160447E-01
   -1.737345E-01    8.669759E-01
   -6.635720E-01    4.829967E-01
   -4.236614E-01   -4.300323E-01
    2.285576E-01   -8.721005E-01
    6.403411E-01   -3.615587E-01
    4.611002E-01    5.319844E-01
   -9.153402E-02    8.387191E-01
   -4.904552E-01    2.667470E-01
   -3.872783E-01   -5.146732E-01
    9.156333E-02   -6.624411E-01
    4.741946E-01   -8.071222E-02
    3.868928E-01    5.439520E-01
   -8.074351E-02    5.523572E-01
   -4.519278E-01    7.513273E-03
   -3.426233E-01   -4.573474E-01
    1.276521E-01   -3.724563E-01
    4.481986E-01    1.023816E-01
    2.663327E-01    4.274398E-01
   -2.174896E-01    2.858385E-01
   -4.637343E-01   -1.273196E-01
   -1.959321E-01   -3.684644E-01
    2.859291E-01   -2.140605E-01
    4.422279E-01    1.495803E-01
    1.004351E-01    3.499841E-01
   -3.566260E-01    1.988540E-01
   -4.263231E-01   -1.451514E-01
   -4.192629E-02   -3.447186E-01
    3.716965E-01   -2.079897E-01
    3.793207E-01    1.309197E-01
   -1.744884E-03    3.407898E-01
   -3.531138E-01    2.149827E-01
   -3.231435E-01   -1.211623E-01
    1.984903E-02   -3.309736E-01
    3.028891E-01   -2.067781E-01
    2.580907E-01    1.161526E-01
   -2.579413E-02    3.022224E-01
   -2.398841E-01    1.698292E-01
   -1.881661E-01   -1.221590E-01
    3.833245E-02   -2.566250E-01
    1.912706E-01   -1.048910E-01
    1.285725E-01    1.452790E-01
   -5.979342E-02    2.127076E-01
   -1.664009E-01    3.649101E-02
   -8.458075E-02   -1.699589E-01
    9.006144E-02   -1.707607E-01
    1.663081E-01    2.926231E-02
    5.808997E-02    2.005401E-01
   -1.244133E-01    1.508709E-01
   -1.869781E-01   -6.582083E-02
   -5.480999E-02   -2.161876E-01
    1.431756E-01   -1.419596E-01
    2.026751E-01    7.757955E-02
    5.658211E-02    2.175337E-01
   -1.509665E-01    1.417974E-01
   -2.110342E-01   -6.671833E-02
   -6.515532E-02   -2.011195E-01
    1.367767E-01   -1.392499E-01
    1.945947E-01    4.557307E-02
    6.191516E-02    1.700600E-01
   -1.166257E-01    1.241934E-01
   -1.640639E-01   -3.086090E-02
   -5.007260E-02   -1.369145E-01
    9.383625E-02   -9.978661E-02
    1.233268E-01    2.587895E-02
    2.687602E-02    1.052587E-01
   -7.935693E-02    6.575095E-02
   -8.542422E-02   -3.579441E-02
    6.531779E-04   -8.432791E-02
    7.500584E-02   -3.288084E-02
    5.705765E-02    5.261629E-02
   -2.691412E-02    7.277994E-02
   -7.950985E-02    6.098717E-03
   -4.118427E-02   -7.027649E-02
    4.627786E-02   -6.900837E-02
    8.664951E-02    1.049068E-02
    3.361566E-02    8.242569E-02
   -5.895049E-02    6.865742E-02
   -9.356543E-02   -1.765525E-02
   -3.231400E-02   -8.723504E-02
    6.249188E-02   -6.902305E-02
    9.326257E-02    1.735115E-02
    2.905798E-02    8.417214E-02
   -6.302603E-02    6.594095E-02
   -8.908016E-02   -1.642330E-02
   -2.570811E-02   -7.979784E-02
    5.888179E-02   -6.326551E-02
    7.902427E-02    1.307649E-02
    1.958347E-02    7.141281E-02
   -5.376453E-02    5.534598E-02
   -6.711875E-02   -1.522905E-02
   -1.310476E-02   -6.717351E-02
    4.828108E-02   -4.961622E-02
    5.624240E-02    1.566265E-02
    9.242950E-03    5.965616E-02
   -4.041448E-02    3.907360E-02
   -4.413937E-02   -2.030031E-02
   -3.814107E-03   -5.420584E-02
    3.622427E-02   -2.943040E-02
    3.710258E-02    2.323341E-02
    2.360807E-03    4.602747E-02
   -2.999668E-02    1.775972E-02
   -2.788001E-02   -2.633205E-02
    3.719450E-03   -3.710212E-02
    3.014008E-02   -5.848911E-03
    2.370585E-02    2.961483E-02
   -7.832981E-03    3.001544E-02
   -2.987042E-02   -2.463373E-03
   -1.794001E-02   -2.990304E-02
    1.543875E-02   -2.251223E-02
    3.341438E-02    1.003262E-02
    1.481334E-02    3.192035E-02
   -2.153366E-02    2.069204E-02
   -3.608968E-02   -1.074608E-02
   -1.187020E-02   -2.998214E-02
    2.590910E-02   -1.867829E-02
    3.662376E-02    1.084387E-02
    8.558826E-03    2.968214E-02
   -2.835291E-02    2.051318E-02
   -3.538726E-02   -7.144574E-03
   -6.643862E-03   -2.701083E-02
    2.623417E-02   -2.081190E-02
    2.961777E-02    4.894730E-03
    3.038011E-03    2.510815E-02
   -2.350876E-02    2.040120E-02
   -2.369213E-02   -3.978865E-03
   -1.163671E-03   -2.318221E-02
