 Vespa-Simulation Mixed Metabolite Output
 This file was generated by Vespa-Simulation. You can learn about and download Vespa here:
https://github.com/vespa-mrs/vespa/tree/main/vespa

 
 Output Path/Filename = /home/stud/casperc/bhome/Project1(DeepFit)/DeepFit-data-generation/DeepFitData_TE_20_lw18_2048p
 Output Loop Values = (1,1,1)  ( Loop 1 = 10, Loop 2 = 10, Loop3 Inactive )
 Output Comment
 ---------------------------------------------------------------------------
 
 
 Experiment Information
 ---------------------------------------------------------------------------
 --- Experiment 18b0168e-f5f0-4bd4-8d52-da93aba06c60 ---
 Name: SyntheticDataSetDeepFitTE20
 Public: False
 Created: 2024-10-08T09:55:07
 Comment (abbr.): 
 PI: Casper Cappelen
 b0: 127.740000
 Peak Search PPM low/high: -15.000000 / 15.000000
 Blend tol. PPM/phase: 0.001500 / 50.000000
 Pulse seq.: 43be13ae-de9a-40a1-9a2d-c872d8bjs100 (PRESS Ideal)
 0 User static parameters: 
 22 Metabolites: 2-hydroxyglutarate, alanine, choline-trimethyl, creatine, ethanolamine, gaba, glucose-beta, glutamate, glutamine, glutathione-glutamate, glutathione-glycine-cysteine, glycine, GPC-pcholine2, lactate, myo-inositol, n-acetylaspartate, NAAG-truncated, phosphocreatine, phosphorylcholine-trimethyl, phosphorylethanolamine, pyruvate, taurine
 22 Simulations: (not shown)
 
 Metabolite Formatting Information
 ---------------------------------------------------------------------------
 Name=2-hydroxyglutarate Abbr=2HG Scale=1.0 Shift=0.0 PPM Start=-3.1207465171441986 PPM End=12.528391440425866
 Name=alanine Abbr=Ala Scale=1.0 Shift=0.0 PPM Start=-3.1207465171441986 PPM End=12.528391440425866
 Name=choline-trimethyl Abbr=Cho Scale=1.0 Shift=0.0 PPM Start=-3.1207465171441986 PPM End=12.528391440425866
 Name=creatine Abbr=Cr Scale=1.0 Shift=0.0 PPM Start=-3.1207465171441986 PPM End=12.528391440425866
 Name=ethanolamine Abbr=ETA Scale=1.0 Shift=0.0 PPM Start=-3.1207465171441986 PPM End=12.528391440425866
 Name=gaba Abbr=GABA Scale=1.0 Shift=0.0 PPM Start=-3.1207465171441986 PPM End=12.528391440425866
 Name=glucose-beta Abbr=Glc Scale=1.0 Shift=0.0 PPM Start=-3.1207465171441986 PPM End=12.528391440425866
 Name=glutamate Abbr=Glu Scale=1.0 Shift=0.0 PPM Start=-3.1207465171441986 PPM End=12.528391440425866
 Name=glutamine Abbr=Gln Scale=1.0 Shift=0.0 PPM Start=-3.1207465171441986 PPM End=12.528391440425866
 Name=glycine Abbr=Gly Scale=1.0 Shift=0.0 PPM Start=-3.1207465171441986 PPM End=12.528391440425866
 Name=GPC-pcholine2 Abbr=GPC Scale=1.0 Shift=0.0 PPM Start=-3.1207465171441986 PPM End=12.528391440425866
 Name=lactate Abbr=Lac Scale=1.0 Shift=0.0 PPM Start=-3.1207465171441986 PPM End=12.528391440425866
 Name=myo-inositol Abbr=mI Scale=1.0 Shift=0.0 PPM Start=-3.1207465171441986 PPM End=12.528391440425866
 Name=n-acetylaspartate Abbr=NAA Scale=1.0 Shift=0.0 PPM Start=-3.1207465171441986 PPM End=12.528391440425866
 Name=NAAG-truncated Abbr=NAAG Scale=1.0 Shift=0.0 PPM Start=-3.1207465171441986 PPM End=12.528391440425866
 Name=phosphocreatine Abbr=PCr Scale=1.0 Shift=0.0 PPM Start=-3.1207465171441986 PPM End=12.528391440425866
 Name=phosphorylcholine-trimethyl Abbr=PCho Scale=1.0 Shift=0.0 PPM Start=-3.1207465171441986 PPM End=12.528391440425866
 Name=phosphorylethanolamine Abbr=PE Scale=1.0 Shift=0.0 PPM Start=-3.1207465171441986 PPM End=12.528391440425866
 Name=pyruvate Abbr=Pyr Scale=1.0 Shift=0.0 PPM Start=-3.1207465171441986 PPM End=12.528391440425866
 Name=taurine Abbr=Tau Scale=1.0 Shift=0.0 PPM Start=-3.1207465171441986 PPM End=12.528391440425866
 Name=glutathione-glutamate+glutathione-glycine-cysteine Abbr=GSH Scale=1.0 Shift=0.0 PPM Start=-3.1207565171441987 PPM End=12.528
   Mixture of [metab*scale] = glutathione-glutamate*1.000000 + glutathione-glycine-cysteine*1.000000
 
 ===========================================================================
 This LCModel format RAW file was created using the 
 Vespa-Simulation spectral simulation program using 
 the following settings and parameters 
 
 Sweep Width = 2000.0 Hz 
 Vector Size = 2048 points 
 Apodization = 18.0 Hz Lorentzian broadening
 B0 Field    = 127.74 MHz 
 Ref Singlet = False
  
 This data has been FFTd to be in the FREQUENCY domain
 
 $NMID ID='NAA'
 FMTDAT='(2E16.6)'
 VOLUME=1.0
 TRAMP=1.0
 $END
    5.250101E+00    9.551071E+00
    5.337347E+00    9.686092E+00
    5.430712E+00    9.825423E+00
    5.530825E+00    9.969263E+00
    5.638425E+00    1.011780E+01
    5.754370E+00    1.027118E+01
    5.879652E+00    1.042948E+01
    6.015382E+00    1.059268E+01
    6.162767E+00    1.076060E+01
    6.323072E+00    1.093293E+01
    6.497602E+00    1.110925E+01
    6.687710E+00    1.128902E+01
    6.894857E+00    1.147166E+01
    7.120689E+00    1.165646E+01
    7.367094E+00    1.184250E+01
    7.636210E+00    1.202850E+01
    7.930358E+00    1.221269E+01
    8.251942E+00    1.239270E+01
    8.603311E+00    1.256545E+01
    8.986620E+00    1.272711E+01
    9.403657E+00    1.287301E+01
    9.855608E+00    1.299758E+01
    1.034273E+01    1.309431E+01
    1.086389E+01    1.315590E+01
    1.141607E+01    1.317449E+01
    1.199388E+01    1.314241E+01
    1.258934E+01    1.305312E+01
    1.319229E+01    1.290258E+01
    1.379158E+01    1.269037E+01
    1.437717E+01    1.242011E+01
    1.494250E+01    1.209824E+01
    1.548559E+01    1.173123E+01
    1.600781E+01    1.132227E+01
    1.651033E+01    1.086980E+01
    1.699038E+01    1.036921E+01
    1.744007E+01    9.816923E+00
    1.784872E+01    9.213815E+00
    1.820670E+01    8.565652E+00
    1.850790E+01    7.880635E+00
    1.874942E+01    7.166471E+00
    1.892940E+01    6.429229E+00
    1.904548E+01    5.674282E+00
    1.909479E+01    4.907724E+00
    1.907498E+01    4.136788E+00
    1.898461E+01    3.369425E+00
    1.882306E+01    2.614254E+00
    1.859088E+01    1.881168E+00
    1.829134E+01    1.181360E+00
    1.793203E+01    5.254823E-01
    1.752443E+01   -7.955095E-02
    1.708068E+01   -6.328110E-01
    1.660933E+01   -1.138412E+00
    1.611292E+01   -1.601436E+00
    1.558948E+01   -2.023369E+00
    1.503678E+01   -2.400152E+00
    1.445640E+01   -2.723865E+00
    1.385524E+01   -2.986403E+00
    1.324430E+01   -3.182742E+00
    1.263609E+01   -3.312374E+00
    1.204225E+01   -3.378987E+00
    1.147208E+01   -3.389183E+00
    1.093207E+01   -3.351033E+00
    1.042606E+01   -3.272912E+00
    9.955773E+00   -3.162757E+00
    9.521327E+00   -3.027671E+00
    9.121756E+00   -2.873793E+00
    8.755362E+00   -2.706296E+00
    8.419986E+00   -2.529443E+00
    8.113214E+00   -2.346651E+00
    7.832546E+00   -2.160561E+00
    7.575558E+00   -1.973130E+00
    7.340034E+00   -1.785773E+00
    7.124021E+00   -1.599523E+00
    6.925827E+00   -1.415192E+00
    6.743942E+00   -1.233472E+00
    6.576961E+00   -1.054976E+00
    6.423515E+00   -8.802159E-01
    6.282271E+00   -7.095621E-01
    6.151955E+00   -5.432195E-01
    6.031398E+00   -3.812376E-01
    5.919566E+00   -2.235462E-01
    5.815571E+00   -6.999964E-02
    5.718652E+00    7.958474E-02
    5.628166E+00    2.254002E-01
    5.543558E+00    3.676354E-01
    5.464346E+00    5.064683E-01
    5.390103E+00    6.420644E-01
    5.320449E+00    7.745776E-01
    5.255043E+00    9.041524E-01
    5.193574E+00    1.030925E+00
    5.135760E+00    1.155024E+00
    5.081343E+00    1.276573E+00
    5.030089E+00    1.395688E+00
    4.981782E+00    1.512482E+00
    4.936222E+00    1.627063E+00
    4.893229E+00    1.739535E+00
    4.852633E+00    1.849997E+00
    4.814281E+00    1.958547E+00
    4.778033E+00    2.065277E+00
    4.743757E+00    2.170276E+00
    4.711334E+00    2.273629E+00
    4.680655E+00    2.375417E+00
    4.651616E+00    2.475718E+00
    4.624123E+00    2.574606E+00
    4.598088E+00    2.672153E+00
    4.573427E+00    2.768427E+00
    4.550066E+00    2.863496E+00
    4.527933E+00    2.957423E+00
    4.506964E+00    3.050271E+00
    4.487097E+00    3.142097E+00
    4.468275E+00    3.232960E+00
    4.450445E+00    3.322915E+00
    4.433558E+00    3.412015E+00
    4.417568E+00    3.500313E+00
    4.402433E+00    3.587858E+00
    4.388114E+00    3.674698E+00
    4.374575E+00    3.760881E+00
    4.361781E+00    3.846451E+00
    4.349701E+00    3.931450E+00
    4.338305E+00    4.015920E+00
    4.327565E+00    4.099901E+00
    4.317454E+00    4.183432E+00
    4.307949E+00    4.266553E+00
    4.299025E+00    4.349299E+00
    4.290663E+00    4.431707E+00
    4.282840E+00    4.513812E+00
    4.275539E+00    4.595648E+00
    4.268741E+00    4.677250E+00
    4.262430E+00    4.758651E+00
    4.256591E+00    4.839883E+00
    4.251210E+00    4.920979E+00
    4.246275E+00    5.001969E+00
    4.241772E+00    5.082886E+00
    4.237693E+00    5.163757E+00
    4.234026E+00    5.244614E+00
    4.230762E+00    5.325484E+00
    4.227892E+00    5.406396E+00
    4.225409E+00    5.487379E+00
    4.223305E+00    5.568459E+00
    4.221573E+00    5.649665E+00
    4.220206E+00    5.731024E+00
    4.219200E+00    5.812562E+00
    4.218549E+00    5.894308E+00
    4.218247E+00    5.976287E+00
    4.218292E+00    6.058527E+00
    4.218679E+00    6.141056E+00
    4.219405E+00    6.223899E+00
    4.220468E+00    6.307085E+00
    4.221866E+00    6.390640E+00
    4.223598E+00    6.474593E+00
    4.225662E+00    6.558969E+00
    4.228059E+00    6.643798E+00
    4.230788E+00    6.729106E+00
    4.233851E+00    6.814922E+00
    4.237249E+00    6.901272E+00
    4.240983E+00    6.988187E+00
    4.245055E+00    7.075693E+00
    4.249467E+00    7.163820E+00
    4.254222E+00    7.252597E+00
    4.259323E+00    7.342055E+00
    4.264773E+00    7.432223E+00
    4.270577E+00    7.523134E+00
    4.276739E+00    7.614818E+00
    4.283267E+00    7.707309E+00
    4.290164E+00    7.800640E+00
    4.297440E+00    7.894842E+00
    4.305101E+00    7.989950E+00
    4.313155E+00    8.085998E+00
    4.321610E+00    8.183021E+00
    4.330473E+00    8.281055E+00
    4.339752E+00    8.380136E+00
    4.349458E+00    8.480305E+00
