 Vespa-Simulation Mixed Metabolite Output
 This file was generated by Vespa-Simulation. You can learn about and download Vespa here:
https://github.com/vespa-mrs/vespa/tree/main/vespa

 
 Output Path/Filename = /home/stud/casperc/bhome/Project1(DeepFit)/DeepFit-data-generation/DeepFitData_TE_20_lw18_2048p
 Output Loop Values = (1,1,1)  ( Loop 1 = 10, Loop 2 = 10, Loop3 Inactive )
 Output Comment
 ---------------------------------------------------------------------------
 
 
 Experiment Information
 ---------------------------------------------------------------------------
 --- Experiment 18b0168e-f5f0-4bd4-8d52-da93aba06c60 ---
 Name: SyntheticDataSetDeepFitTE20
 Public: False
 Created: 2024-10-08T09:55:07
 Comment (abbr.): 
 PI: Casper Cappelen
 b0: 127.740000
 Peak Search PPM low/high: -15.000000 / 15.000000
 Blend tol. PPM/phase: 0.001500 / 50.000000
 Pulse seq.: 43be13ae-de9a-40a1-9a2d-c872d8bjs100 (PRESS Ideal)
 0 User static parameters: 
 22 Metabolites: 2-hydroxyglutarate, alanine, choline-trimethyl, creatine, ethanolamine, gaba, glucose-beta, glutamate, glutamine, glutathione-glutamate, glutathione-glycine-cysteine, glycine, GPC-pcholine2, lactate, myo-inositol, n-acetylaspartate, NAAG-truncated, phosphocreatine, phosphorylcholine-trimethyl, phosphorylethanolamine, pyruvate, taurine
 22 Simulations: (not shown)
 
 Metabolite Formatting Information
 ---------------------------------------------------------------------------
 Name=2-hydroxyglutarate Abbr=2HG Scale=1.0 Shift=0.0 PPM Start=-3.1207465171441986 PPM End=12.528391440425866
 Name=alanine Abbr=Ala Scale=1.0 Shift=0.0 PPM Start=-3.1207465171441986 PPM End=12.528391440425866
 Name=choline-trimethyl Abbr=Cho Scale=1.0 Shift=0.0 PPM Start=-3.1207465171441986 PPM End=12.528391440425866
 Name=creatine Abbr=Cr Scale=1.0 Shift=0.0 PPM Start=-3.1207465171441986 PPM End=12.528391440425866
 Name=ethanolamine Abbr=ETA Scale=1.0 Shift=0.0 PPM Start=-3.1207465171441986 PPM End=12.528391440425866
 Name=gaba Abbr=GABA Scale=1.0 Shift=0.0 PPM Start=-3.1207465171441986 PPM End=12.528391440425866
 Name=glucose-beta Abbr=Glc Scale=1.0 Shift=0.0 PPM Start=-3.1207465171441986 PPM End=12.528391440425866
 Name=glutamate Abbr=Glu Scale=1.0 Shift=0.0 PPM Start=-3.1207465171441986 PPM End=12.528391440425866
 Name=glutamine Abbr=Gln Scale=1.0 Shift=0.0 PPM Start=-3.1207465171441986 PPM End=12.528391440425866
 Name=glycine Abbr=Gly Scale=1.0 Shift=0.0 PPM Start=-3.1207465171441986 PPM End=12.528391440425866
 Name=GPC-pcholine2 Abbr=GPC Scale=1.0 Shift=0.0 PPM Start=-3.1207465171441986 PPM End=12.528391440425866
 Name=lactate Abbr=Lac Scale=1.0 Shift=0.0 PPM Start=-3.1207465171441986 PPM End=12.528391440425866
 Name=myo-inositol Abbr=mI Scale=1.0 Shift=0.0 PPM Start=-3.1207465171441986 PPM End=12.528391440425866
 Name=n-acetylaspartate Abbr=NAA Scale=1.0 Shift=0.0 PPM Start=-3.1207465171441986 PPM End=12.528391440425866
 Name=NAAG-truncated Abbr=NAAG Scale=1.0 Shift=0.0 PPM Start=-3.1207465171441986 PPM End=12.528391440425866
 Name=phosphocreatine Abbr=PCr Scale=1.0 Shift=0.0 PPM Start=-3.1207465171441986 PPM End=12.528391440425866
 Name=phosphorylcholine-trimethyl Abbr=PCho Scale=1.0 Shift=0.0 PPM Start=-3.1207465171441986 PPM End=12.528391440425866
 Name=phosphorylethanolamine Abbr=PE Scale=1.0 Shift=0.0 PPM Start=-3.1207465171441986 PPM End=12.528391440425866
 Name=pyruvate Abbr=Pyr Scale=1.0 Shift=0.0 PPM Start=-3.1207465171441986 PPM End=12.528391440425866
 Name=taurine Abbr=Tau Scale=1.0 Shift=0.0 PPM Start=-3.1207465171441986 PPM End=12.528391440425866
 Name=glutathione-glutamate+glutathione-glycine-cysteine Abbr=GSH Scale=1.0 Shift=0.0 PPM Start=-3.1207565171441987 PPM End=12.528
   Mixture of [metab*scale] = glutathione-glutamate*1.000000 + glutathione-glycine-cysteine*1.000000
 
 ===========================================================================
 This LCModel format RAW file was created using the 
 Vespa-Simulation spectral simulation program using 
 the following settings and parameters 
 
 Sweep Width = 2000.0 Hz 
 Vector Size = 2048 points 
 Apodization = 18.0 Hz Lorentzian broadening
 B0 Field    = 127.74 MHz 
 Ref Singlet = False
  
 This data has been FFTd to be in the FREQUENCY domain
 
 $NMID ID='NAAG'
 FMTDAT='(2E16.6)'
 VOLUME=1.0
 TRAMP=1.0
 $END
    5.273365E-01    8.462038E-01
    5.274769E-01    8.491724E-01
    5.276185E-01    8.521568E-01
    5.277615E-01    8.551571E-01
    5.279057E-01    8.581735E-01
    5.280513E-01    8.612062E-01
    5.281982E-01    8.642552E-01
    5.283468E-01    8.673207E-01
    5.284970E-01    8.704029E-01
    5.286490E-01    8.735017E-01
    5.288028E-01    8.766172E-01
    5.289585E-01    8.797493E-01
    5.291158E-01    8.828981E-01
    5.292747E-01    8.860636E-01
    5.294351E-01    8.892461E-01
    5.295970E-01    8.924458E-01
    5.297602E-01    8.956629E-01
    5.299250E-01    8.988976E-01
    5.300912E-01    9.021501E-01
    5.302588E-01    9.054204E-01
    5.304279E-01    9.087089E-01
    5.305983E-01    9.120159E-01
    5.307703E-01    9.153415E-01
    5.309439E-01    9.186860E-01
    5.311193E-01    9.220495E-01
    5.312966E-01    9.254320E-01
    5.314759E-01    9.288337E-01
    5.316569E-01    9.322545E-01
    5.318397E-01    9.356946E-01
    5.320242E-01    9.391542E-01
    5.322102E-01    9.426336E-01
    5.323978E-01    9.461329E-01
    5.325868E-01    9.496525E-01
    5.327773E-01    9.531927E-01
    5.329694E-01    9.567537E-01
    5.331631E-01    9.603360E-01
    5.333586E-01    9.639397E-01
    5.335559E-01    9.675651E-01
    5.337553E-01    9.712126E-01
    5.339568E-01    9.748821E-01
    5.341608E-01    9.785739E-01
    5.343674E-01    9.822881E-01
    5.345766E-01    9.860246E-01
    5.347884E-01    9.897833E-01
    5.350028E-01    9.935644E-01
    5.352195E-01    9.973678E-01
    5.354383E-01    1.001194E+00
    5.356588E-01    1.005043E+00
    5.358809E-01    1.008915E+00
    5.361047E-01    1.012811E+00
    5.363300E-01    1.016732E+00
    5.365572E-01    1.020677E+00
    5.367862E-01    1.024647E+00
    5.370175E-01    1.028643E+00
    5.372511E-01    1.032665E+00
    5.374874E-01    1.036713E+00
    5.377267E-01    1.040788E+00
    5.379695E-01    1.044888E+00
    5.382159E-01    1.049015E+00
    5.384658E-01    1.053168E+00
    5.387189E-01    1.057346E+00
    5.389744E-01    1.061549E+00
    5.392314E-01    1.065778E+00
    5.394892E-01    1.070034E+00
    5.397475E-01    1.074319E+00
    5.400067E-01    1.078632E+00
    5.402675E-01    1.082977E+00
    5.405311E-01    1.087353E+00
    5.407986E-01    1.091760E+00
    5.410708E-01    1.096197E+00
    5.413481E-01    1.100666E+00
    5.416305E-01    1.105163E+00
    5.419175E-01    1.109690E+00
    5.422082E-01    1.114246E+00
    5.425017E-01    1.118831E+00
    5.427971E-01    1.123446E+00
    5.430939E-01    1.128092E+00
    5.433922E-01    1.132771E+00
    5.436927E-01    1.137484E+00
    5.439961E-01    1.142231E+00
    5.443032E-01    1.147013E+00
    5.446148E-01    1.151829E+00
    5.449310E-01    1.156680E+00
    5.452518E-01    1.161566E+00
    5.455771E-01    1.166486E+00
    5.459067E-01    1.171441E+00
    5.462405E-01    1.176430E+00
    5.465783E-01    1.181456E+00
    5.469200E-01    1.186517E+00
    5.472654E-01    1.191614E+00
    5.476143E-01    1.196748E+00
    5.479667E-01    1.201919E+00
    5.483225E-01    1.207129E+00
    5.486817E-01    1.212377E+00
    5.490448E-01    1.217666E+00
    5.494121E-01    1.222994E+00
    5.497839E-01    1.228363E+00
    5.501607E-01    1.233773E+00
    5.505425E-01    1.239225E+00
    5.509294E-01    1.244717E+00
    5.513214E-01    1.250252E+00
    5.517186E-01    1.255829E+00
    5.521208E-01    1.261449E+00
    5.525281E-01    1.267112E+00
    5.529406E-01    1.272819E+00
    5.533582E-01    1.278570E+00
    5.537809E-01    1.284366E+00
    5.542087E-01    1.290207E+00
    5.546414E-01    1.296094E+00
    5.550793E-01    1.302028E+00
    5.555224E-01    1.308010E+00
    5.559710E-01    1.314040E+00
    5.564255E-01    1.320120E+00
    5.568861E-01    1.326248E+00
    5.573529E-01    1.332427E+00
    5.578259E-01    1.338655E+00
    5.583052E-01    1.344935E+00
    5.587907E-01    1.351267E+00
    5.592827E-01    1.357650E+00
    5.597811E-01    1.364087E+00
    5.602860E-01    1.370577E+00
    5.607974E-01    1.377121E+00
    5.613152E-01    1.383721E+00
    5.618395E-01    1.390376E+00
    5.623703E-01    1.397088E+00
    5.629078E-01    1.403858E+00
    5.634520E-01    1.410686E+00
    5.640034E-01    1.417574E+00
    5.645621E-01    1.424522E+00
    5.651284E-01    1.431532E+00
    5.657026E-01    1.438603E+00
    5.662848E-01    1.445737E+00
    5.668752E-01    1.452935E+00
    5.674740E-01    1.460197E+00
    5.680813E-01    1.467524E+00
    5.686974E-01    1.474917E+00
    5.693224E-01    1.482378E+00
    5.699564E-01    1.489906E+00
    5.705995E-01    1.497503E+00
    5.712519E-01    1.505169E+00
    5.719136E-01    1.512907E+00
    5.725848E-01    1.520717E+00
    5.732657E-01    1.528599E+00
    5.739565E-01    1.536556E+00
    5.746575E-01    1.544588E+00
    5.753690E-01    1.552696E+00
    5.760911E-01    1.560882E+00
    5.768242E-01    1.569146E+00
    5.775684E-01    1.577490E+00
    5.783240E-01    1.585915E+00
    5.790913E-01    1.594422E+00
    5.798704E-01    1.603012E+00
    5.806616E-01    1.611687E+00
    5.814652E-01    1.620448E+00
    5.822813E-01    1.629296E+00
    5.831101E-01    1.638232E+00
    5.839519E-01    1.647258E+00
    5.848069E-01    1.656376E+00
    5.856756E-01    1.665586E+00
    5.865584E-01    1.674891E+00
    5.874558E-01    1.684292E+00
    5.883683E-01    1.693790E+00
    5.892964E-01    1.703387E+00
    5.902401E-01    1.713083E+00
    5.911999E-01    1.722881E+00
    5.921755E-01    1.732781E+00
    5.931671E-01    1.742785E+00
    5.941746E-01    1.752895E+00
    5.951980E-01    1.763113E+00
    5.962376E-01    1.773442E+00
    5.972938E-01    1.783883E+00
    5.983670E-01    1.794438E+00
