 Vespa-Simulation Mixed Metabolite Output
 This file was generated by Vespa-Simulation. You can learn about and download Vespa here:
https://github.com/vespa-mrs/vespa/tree/main/vespa

 
 Output Path/Filename = /home/stud/casperc/bhome/Project1(DeepFit)/DeepFit-data-generation/DeepFitData_TE_20_lw18_2048p
 Output Loop Values = (1,1,1)  ( Loop 1 = 10, Loop 2 = 10, Loop3 Inactive )
 Output Comment
 ---------------------------------------------------------------------------
 
 
 Experiment Information
 ---------------------------------------------------------------------------
 --- Experiment 18b0168e-f5f0-4bd4-8d52-da93aba06c60 ---
 Name: SyntheticDataSetDeepFitTE20
 Public: False
 Created: 2024-10-08T09:55:07
 Comment (abbr.): 
 PI: Casper Cappelen
 b0: 127.740000
 Peak Search PPM low/high: -15.000000 / 15.000000
 Blend tol. PPM/phase: 0.001500 / 50.000000
 Pulse seq.: 43be13ae-de9a-40a1-9a2d-c872d8bjs100 (PRESS Ideal)
 0 User static parameters: 
 22 Metabolites: 2-hydroxyglutarate, alanine, choline-trimethyl, creatine, ethanolamine, gaba, glucose-beta, glutamate, glutamine, glutathione-glutamate, glutathione-glycine-cysteine, glycine, GPC-pcholine2, lactate, myo-inositol, n-acetylaspartate, NAAG-truncated, phosphocreatine, phosphorylcholine-trimethyl, phosphorylethanolamine, pyruvate, taurine
 22 Simulations: (not shown)
 
 Metabolite Formatting Information
 ---------------------------------------------------------------------------
 Name=2-hydroxyglutarate Abbr=2HG Scale=1.0 Shift=0.0 PPM Start=-3.1207465171441986 PPM End=12.528391440425866
 Name=alanine Abbr=Ala Scale=1.0 Shift=0.0 PPM Start=-3.1207465171441986 PPM End=12.528391440425866
 Name=choline-trimethyl Abbr=Cho Scale=1.0 Shift=0.0 PPM Start=-3.1207465171441986 PPM End=12.528391440425866
 Name=creatine Abbr=Cr Scale=1.0 Shift=0.0 PPM Start=-3.1207465171441986 PPM End=12.528391440425866
 Name=ethanolamine Abbr=ETA Scale=1.0 Shift=0.0 PPM Start=-3.1207465171441986 PPM End=12.528391440425866
 Name=gaba Abbr=GABA Scale=1.0 Shift=0.0 PPM Start=-3.1207465171441986 PPM End=12.528391440425866
 Name=glucose-beta Abbr=Glc Scale=1.0 Shift=0.0 PPM Start=-3.1207465171441986 PPM End=12.528391440425866
 Name=glutamate Abbr=Glu Scale=1.0 Shift=0.0 PPM Start=-3.1207465171441986 PPM End=12.528391440425866
 Name=glutamine Abbr=Gln Scale=1.0 Shift=0.0 PPM Start=-3.1207465171441986 PPM End=12.528391440425866
 Name=glycine Abbr=Gly Scale=1.0 Shift=0.0 PPM Start=-3.1207465171441986 PPM End=12.528391440425866
 Name=GPC-pcholine2 Abbr=GPC Scale=1.0 Shift=0.0 PPM Start=-3.1207465171441986 PPM End=12.528391440425866
 Name=lactate Abbr=Lac Scale=1.0 Shift=0.0 PPM Start=-3.1207465171441986 PPM End=12.528391440425866
 Name=myo-inositol Abbr=mI Scale=1.0 Shift=0.0 PPM Start=-3.1207465171441986 PPM End=12.528391440425866
 Name=n-acetylaspartate Abbr=NAA Scale=1.0 Shift=0.0 PPM Start=-3.1207465171441986 PPM End=12.528391440425866
 Name=NAAG-truncated Abbr=NAAG Scale=1.0 Shift=0.0 PPM Start=-3.1207465171441986 PPM End=12.528391440425866
 Name=phosphocreatine Abbr=PCr Scale=1.0 Shift=0.0 PPM Start=-3.1207465171441986 PPM End=12.528391440425866
 Name=phosphorylcholine-trimethyl Abbr=PCho Scale=1.0 Shift=0.0 PPM Start=-3.1207465171441986 PPM End=12.528391440425866
 Name=phosphorylethanolamine Abbr=PE Scale=1.0 Shift=0.0 PPM Start=-3.1207465171441986 PPM End=12.528391440425866
 Name=pyruvate Abbr=Pyr Scale=1.0 Shift=0.0 PPM Start=-3.1207465171441986 PPM End=12.528391440425866
 Name=taurine Abbr=Tau Scale=1.0 Shift=0.0 PPM Start=-3.1207465171441986 PPM End=12.528391440425866
 Name=glutathione-glutamate+glutathione-glycine-cysteine Abbr=GSH Scale=1.0 Shift=0.0 PPM Start=-3.1207565171441987 PPM End=12.528
   Mixture of [metab*scale] = glutathione-glutamate*1.000000 + glutathione-glycine-cysteine*1.000000
 
 ===========================================================================
 This LCModel format RAW file was created using the 
 Vespa-Simulation spectral simulation program using 
 the following settings and parameters 
 
 Sweep Width = 2000.0 Hz 
 Vector Size = 2048 points 
 Apodization = 18.0 Hz Lorentzian broadening
 B0 Field    = 127.74 MHz 
 Ref Singlet = False
  
 $NMID ID='NAAG'
 FMTDAT='(2E16.6)'
 VOLUME=1.0
 TRAMP=1.0
 $END
    1.000000E+00    4.440892E-16
    4.695725E-01    8.511887E-01
   -5.040238E-01    7.993896E-01
   -9.171072E-01   -5.364749E-02
   -3.849837E-01   -8.058227E-01
    5.051283E-01   -7.060868E-01
    8.382074E-01    9.840098E-02
    3.098410E-01    7.596792E-01
   -5.011378E-01    6.204574E-01
   -7.634472E-01   -1.352105E-01
   -2.434039E-01   -7.133290E-01
    4.928819E-01   -5.421420E-01
    6.929089E-01    1.649609E-01
    1.849578E-01    6.672574E-01
   -4.811111E-01    4.707596E-01
   -6.266223E-01   -1.884584E-01
   -1.338282E-01   -6.218693E-01
    4.664862E-01   -4.059256E-01
    5.645699E-01    2.064521E-01
    8.937652E-02    5.774998E-01
   -4.495927E-01    3.472541E-01
   -5.066950E-01   -2.196275E-01
   -5.098539E-02   -5.344241E-01
    4.309545E-01   -2.943488E-01
    4.529107E-01    2.286057E-01
    1.808758E-02    4.928594E-01
   -4.110230E-01    2.468290E-01
   -4.031030E-01   -2.339542E-01
    9.853306E-03   -4.529752E-01
    3.901927E-01   -2.043206E-01
    3.571390E-01    2.361845E-01
   -3.333508E-02    4.148984E-01
   -3.688114E-01    1.664473E-01
   -3.148635E-01   -2.357667E-01
    5.283380E-02   -3.787174E-01
    3.471683E-01   -1.328663E-01
    2.761167E-01    2.331133E-01
   -6.876947E-02    3.444904E-01
   -3.255178E-01    1.032298E-01
   -2.407204E-01   -2.286052E-01
    8.154818E-02   -3.122458E-01
    3.040735E-01   -7.720663E-02
    2.085036E-01    2.225683E-01
   -9.154238E-02    2.819871E-01
   -2.830096E-01    5.449564E-02
   -1.792778E-01   -2.153064E-01
    9.908058E-02   -2.537019E-01
    2.624735E-01   -3.479712E-02
    1.528675E-01    2.070759E-01
   -1.044766E-01    2.273571E-01
   -2.425832E-01    1.782927E-02
   -1.290880E-01   -1.981110E-01
    1.080154E-01   -2.029048E-01
    2.234313E-01   -3.338683E-03
    1.077575E-01    1.886153E-01
   -1.099460E-01    1.802913E-01
   -2.050895E-01   -8.926606E-03
   -8.870746E-02   -1.787609E-01
    1.105035E-01   -1.594488E-01
    1.876102E-01    1.918809E-02
    7.176516E-02    1.687014E-01
   -1.098989E-01    1.403023E-01
   -1.710294E-01   -2.766134E-02
   -5.676439E-02   -1.585678E-01
    1.083171E-01   -1.227754E-01
    1.553686E-01    3.454280E-02
    4.355313E-02    1.484687E-01
   -1.059244E-01    1.067879E-01
   -1.406354E-01   -4.001816E-02
   -3.197873E-02   -1.384980E-01
    1.028724E-01   -9.225393E-02
    1.268312E-01    4.424493E-02
    2.189861E-02    1.287330E-01
   -9.929371E-02    7.908848E-02
   -1.139444E-01   -4.738085E-02
   -1.317413E-02   -1.192370E-01
    9.530547E-02   -6.720632E-02
    1.019577E-01    4.956554E-02
    5.685970E-03    1.100599E-01
   -9.101221E-02    5.652017E-02
   -9.084733E-02   -5.092615E-02
    6.891962E-04   -1.012417E-01
    8.649982E-02   -4.695297E-02
    8.058499E-02    5.157800E-02
   -6.062885E-03    9.281257E-02
   -8.184829E-02    3.842089E-02
   -7.113671E-02   -5.162754E-02
    1.053898E-02   -8.479388E-02
    7.712467E-02   -3.084558E-02
    6.247059E-02    5.116392E-02
   -1.421632E-02    7.719931E-02
   -7.238622E-02    2.415158E-02
   -5.454770E-02   -5.027386E-02
    1.717902E-02   -7.003748E-02
    6.768149E-02   -1.826664E-02
    4.732932E-02    4.903260E-02
   -1.951196E-02    6.331036E-02
   -6.305146E-02    1.311992E-02
   -4.077585E-02   -4.750700E-02
    2.129067E-02   -5.701575E-02
    5.852875E-02   -8.650164E-03
    3.484603E-02    4.575741E-02
   -2.258428E-02    5.114750E-02
   -5.414115E-02    4.793525E-03
   -2.950303E-02   -4.383368E-02
    2.345587E-02   -4.569627E-02
    4.991039E-02   -1.491933E-03
    2.470612E-02    4.178280E-02
   -2.396406E-02    4.064942E-02
   -4.585323E-02   -1.309036E-03
   -2.041684E-02   -3.964460E-02
    2.415814E-02   -3.599440E-02
    4.198200E-02    3.661506E-03
    1.659782E-02    3.745356E-02
   -2.408643E-02    3.171485E-02
   -3.830559E-02   -5.609996E-03
   -1.321290E-02   -3.523929E-02
    2.379109E-02   -2.779387E-02
    3.482941E-02    7.199762E-03
    1.022631E-02    3.302730E-02
   -2.330991E-02    2.421376E-02
   -3.155611E-02   -8.471279E-03
   -7.606966E-03   -3.083814E-02
    2.267723E-02   -2.095552E-02
    2.848592E-02    9.461807E-03
    5.322183E-03    2.868994E-02
   -2.192155E-02    1.800201E-02
   -2.561677E-02   -1.020634E-02
   -3.341191E-03   -2.659735E-02
    2.106961E-02   -1.533452E-02
    2.294619E-02    1.073373E-02
    1.638264E-03    2.457181E-02
   -2.014607E-02    1.293255E-02
   -2.046799E-02   -1.107551E-02
   -1.836714E-04   -2.262287E-02
    1.917018E-02   -1.077926E-02
    1.817687E-02    1.125594E-02
   -1.044441E-03    2.075750E-02
   -1.815906E-02    8.857980E-03
   -1.606671E-02   -1.129745E-02
    2.071936E-03   -1.898076E-02
    1.712919E-02   -7.149092E-03
    1.412853E-02    1.122327E-02
   -2.918896E-03    1.729616E-02
   -1.609262E-02    5.638145E-03
   -1.235569E-02   -1.105045E-02
    3.604252E-03   -1.570598E-02
    1.506124E-02   -4.307070E-03
    1.073839E-02    1.079757E-02
   -4.148433E-03    1.421060E-02
   -1.404391E-02    3.141689E-03
   -9.269377E-03   -1.047827E-02
    4.566445E-03   -1.281026E-02
    1.304824E-02   -2.128331E-03
    7.938621E-03    1.010717E-02
   -4.875450E-03    1.150328E-02
   -1.208084E-02    1.251594E-03
   -6.738092E-03   -9.695416E-03
    5.088693E-03   -1.028805E-02
    1.114656E-02   -5.001543E-04
    5.659765E-03    9.253011E-03
   -5.218463E-03    9.162442E-03
   -1.024941E-02   -1.395508E-04
   -4.693986E-03   -8.789753E-03
    5.277638E-03   -8.122848E-03
    9.392306E-03    6.780776E-04
    3.833650E-03    8.312826E-03
   -5.275664E-03    7.166588E-03
   -8.577415E-03   -1.125424E-03
   -3.069706E-03   -7.829494E-03
    5.222979E-03   -6.289370E-03
    7.805993E-03    1.492490E-03
    2.395029E-03    7.345227E-03
   -5.127237E-03    5.488018E-03
