 Vespa-Simulation Mixed Metabolite Output
 This file was generated by Vespa-Simulation. You can learn about and download Vespa here:
https://github.com/vespa-mrs/vespa/tree/main/vespa

 
 Output Path/Filename = /home/stud/casperc/bhome/Project1(DeepFit)/DeepFit-data-generation/DeepFitData_TE_20_lw18_2048p
 Output Loop Values = (1,1,1)  ( Loop 1 = 10, Loop 2 = 10, Loop3 Inactive )
 Output Comment
 ---------------------------------------------------------------------------
 
 
 Experiment Information
 ---------------------------------------------------------------------------
 --- Experiment 18b0168e-f5f0-4bd4-8d52-da93aba06c60 ---
 Name: SyntheticDataSetDeepFitTE20
 Public: False
 Created: 2024-10-08T09:55:07
 Comment (abbr.): 
 PI: Casper Cappelen
 b0: 127.740000
 Peak Search PPM low/high: -15.000000 / 15.000000
 Blend tol. PPM/phase: 0.001500 / 50.000000
 Pulse seq.: 43be13ae-de9a-40a1-9a2d-c872d8bjs100 (PRESS Ideal)
 0 User static parameters: 
 22 Metabolites: 2-hydroxyglutarate, alanine, choline-trimethyl, creatine, ethanolamine, gaba, glucose-beta, glutamate, glutamine, glutathione-glutamate, glutathione-glycine-cysteine, glycine, GPC-pcholine2, lactate, myo-inositol, n-acetylaspartate, NAAG-truncated, phosphocreatine, phosphorylcholine-trimethyl, phosphorylethanolamine, pyruvate, taurine
 22 Simulations: (not shown)
 
 Metabolite Formatting Information
 ---------------------------------------------------------------------------
 Name=2-hydroxyglutarate Abbr=2HG Scale=1.0 Shift=0.0 PPM Start=-3.1207465171441986 PPM End=12.528391440425866
 Name=alanine Abbr=Ala Scale=1.0 Shift=0.0 PPM Start=-3.1207465171441986 PPM End=12.528391440425866
 Name=choline-trimethyl Abbr=Cho Scale=1.0 Shift=0.0 PPM Start=-3.1207465171441986 PPM End=12.528391440425866
 Name=creatine Abbr=Cr Scale=1.0 Shift=0.0 PPM Start=-3.1207465171441986 PPM End=12.528391440425866
 Name=ethanolamine Abbr=ETA Scale=1.0 Shift=0.0 PPM Start=-3.1207465171441986 PPM End=12.528391440425866
 Name=gaba Abbr=GABA Scale=1.0 Shift=0.0 PPM Start=-3.1207465171441986 PPM End=12.528391440425866
 Name=glucose-beta Abbr=Glc Scale=1.0 Shift=0.0 PPM Start=-3.1207465171441986 PPM End=12.528391440425866
 Name=glutamate Abbr=Glu Scale=1.0 Shift=0.0 PPM Start=-3.1207465171441986 PPM End=12.528391440425866
 Name=glutamine Abbr=Gln Scale=1.0 Shift=0.0 PPM Start=-3.1207465171441986 PPM End=12.528391440425866
 Name=glycine Abbr=Gly Scale=1.0 Shift=0.0 PPM Start=-3.1207465171441986 PPM End=12.528391440425866
 Name=GPC-pcholine2 Abbr=GPC Scale=1.0 Shift=0.0 PPM Start=-3.1207465171441986 PPM End=12.528391440425866
 Name=lactate Abbr=Lac Scale=1.0 Shift=0.0 PPM Start=-3.1207465171441986 PPM End=12.528391440425866
 Name=myo-inositol Abbr=mI Scale=1.0 Shift=0.0 PPM Start=-3.1207465171441986 PPM End=12.528391440425866
 Name=n-acetylaspartate Abbr=NAA Scale=1.0 Shift=0.0 PPM Start=-3.1207465171441986 PPM End=12.528391440425866
 Name=NAAG-truncated Abbr=NAAG Scale=1.0 Shift=0.0 PPM Start=-3.1207465171441986 PPM End=12.528391440425866
 Name=phosphocreatine Abbr=PCr Scale=1.0 Shift=0.0 PPM Start=-3.1207465171441986 PPM End=12.528391440425866
 Name=phosphorylcholine-trimethyl Abbr=PCho Scale=1.0 Shift=0.0 PPM Start=-3.1207465171441986 PPM End=12.528391440425866
 Name=phosphorylethanolamine Abbr=PE Scale=1.0 Shift=0.0 PPM Start=-3.1207465171441986 PPM End=12.528391440425866
 Name=pyruvate Abbr=Pyr Scale=1.0 Shift=0.0 PPM Start=-3.1207465171441986 PPM End=12.528391440425866
 Name=taurine Abbr=Tau Scale=1.0 Shift=0.0 PPM Start=-3.1207465171441986 PPM End=12.528391440425866
 Name=glutathione-glutamate+glutathione-glycine-cysteine Abbr=GSH Scale=1.0 Shift=0.0 PPM Start=-3.1207565171441987 PPM End=12.528
   Mixture of [metab*scale] = glutathione-glutamate*1.000000 + glutathione-glycine-cysteine*1.000000
 
 ===========================================================================
 This LCModel format RAW file was created using the 
 Vespa-Simulation spectral simulation program using 
 the following settings and parameters 
 
 Sweep Width = 2000.0 Hz 
 Vector Size = 2048 points 
 Apodization = 18.0 Hz Lorentzian broadening
 B0 Field    = 127.74 MHz 
 Ref Singlet = False
  
 $NMID ID='PCho'
 FMTDAT='(2E16.6)'
 VOLUME=1.0
 TRAMP=1.0
 $END
    9.000000E+00    1.561251E-16
    7.227108E+00    4.931083E+00
    3.101723E+00    7.919437E+00
   -1.848320E+00    8.058832E+00
   -5.899643E+00    5.458644E+00
   -7.728263E+00    1.150964E+00
   -6.836497E+00   -3.310066E+00
   -3.676207E+00   -6.403727E+00
    5.565545E-01   -7.156457E+00
    4.367912E+00   -5.441798E+00
    6.489038E+00   -1.976656E+00
    6.293779E+00    1.968055E+00
    3.975684E+00    5.028723E+00
    4.372914E-01    6.216395E+00
   -3.054803E+00    5.231430E+00
   -5.319325E+00    2.527196E+00
   -5.656124E+00   -8.851017E-01
   -4.056988E+00   -3.809728E+00
   -1.170502E+00   -5.282066E+00
    1.954109E+00   -4.882877E+00
    4.244493E+00   -2.850354E+00
    4.970082E+00    3.668324E-02
    3.970936E+00    2.752557E+00
    1.680586E+00    4.386005E+00
   -1.053555E+00    4.442803E+00
   -3.280222E+00    2.990382E+00
   -4.272482E+00    6.040836E-01
   -3.761830E+00   -1.855800E+00
   -2.004003E+00   -3.551330E+00
    3.365022E-01   -3.949752E+00
    2.434278E+00   -2.987328E+00
    3.591506E+00   -1.065122E+00
    3.467592E+00    1.112499E+00
    2.175001E+00    2.793223E+00
    2.161246E-01    3.434672E+00
   -1.708281E+00    2.876508E+00
   -2.947794E+00    1.373926E+00
   -3.119881E+00   -5.118348E-01
   -2.224883E+00   -2.120372E+00
   -6.248381E-01   -2.921698E+00
    1.099022E+00   -2.688513E+00
    2.355571E+00   -1.556738E+00
    2.744485E+00    4.051527E-02
    2.181645E+00    1.536249E+00
    9.101953E-01    2.428939E+00
   -5.999315E-01    2.449157E+00
   -1.823630E+00    1.638013E+00
   -2.361859E+00    3.161961E-01
   -2.069836E+00   -1.040164E+00
   -1.092212E+00   -1.969316E+00
    2.019411E-01   -2.179804E+00
    1.356461E+00   -1.639774E+00
    1.987688E+00   -5.735415E-01
    1.910383E+00    6.284770E-01
    1.189708E+00    1.551379E+00
    1.053646E-01    1.897614E+00
   -9.551015E-01    1.581528E+00
   -1.633469E+00    7.466986E-01
   -1.720812E+00   -2.953556E-01
   -1.219999E+00   -1.180013E+00
   -3.331578E-01   -1.615997E+00
    6.178830E-01   -1.480197E+00
    1.307159E+00   -8.500876E-01
    1.515426E+00    3.357065E-02
    1.198505E+00    8.572651E-01
    4.927476E-01    1.345043E+00
   -3.412742E-01    1.350058E+00
   -1.013748E+00    8.971220E-01
   -1.305584E+00    1.649593E-01
   -1.138793E+00   -5.828396E-01
   -5.951195E-01   -1.091974E+00
    1.204113E-01   -1.202932E+00
    7.557574E-01   -9.000112E-01
    1.099999E+00   -3.086336E-01
    1.052409E+00    3.548586E-01
    6.506645E-01    8.615735E-01
    5.045841E-02    1.048351E+00
   -5.338771E-01    8.694803E-01
   -9.050992E-01    4.056861E-01
   -9.490789E-01   -1.701383E-01
   -6.689167E-01   -6.566079E-01
   -1.773873E-01   -8.937636E-01
    3.472532E-01   -8.148902E-01
    7.253160E-01   -4.641223E-01
    8.367287E-01    2.470968E-02
    6.583612E-01    4.782891E-01
    2.666128E-01    7.447887E-01
   -1.939598E-01    7.441549E-01
   -5.634767E-01    4.912909E-01
   -7.216564E-01    8.577929E-02
   -6.264946E-01   -3.265170E-01
   -3.241970E-01   -6.054456E-01
    7.139329E-02   -6.638064E-01
    4.210316E-01   -4.939252E-01
    6.087107E-01   -1.659579E-01
    5.797285E-01    2.002496E-01
    3.558090E-01    4.784375E-01
    2.357961E-02    5.791382E-01
   -2.983642E-01    4.779803E-01
   -5.014762E-01    2.203470E-01
   -5.234183E-01   -9.782044E-02
   -3.667128E-01   -3.653335E-01
   -9.431936E-02   -4.942866E-01
    1.950824E-01   -4.485939E-01
    4.024391E-01   -2.533380E-01
    4.619672E-01    1.705268E-02
    3.616201E-01    2.668071E-01
    1.441991E-01    4.123813E-01
   -1.101524E-01    4.101527E-01
   -3.131701E-01    2.690117E-01
   -3.988706E-01    4.443138E-02
   -3.446404E-01   -1.828640E-01
   -1.765570E-01   -3.356711E-01
    4.212868E-02   -3.662840E-01
    2.345182E-01   -2.710465E-01
    3.368274E-01   -8.915903E-02
    3.193288E-01    1.129448E-01
    1.945407E-01    2.656571E-01
    1.066311E-02    3.199143E-01
   -1.667198E-01    2.627361E-01
   -2.778282E-01    1.196405E-01
   -2.886497E-01   -5.615092E-02
   -2.010227E-01   -2.032419E-01
   -5.006572E-02   -2.733460E-01
    1.095573E-01   -2.469333E-01
    2.232711E-01   -1.382625E-01
    2.550431E-01    1.130529E-02
    1.986073E-01    1.488173E-01
    7.794565E-02    2.283192E-01
   -6.249347E-02    2.260524E-01
   -1.740378E-01    1.472815E-01
   -2.204498E-01    2.291217E-02
   -1.895766E-01   -1.023867E-01
   -9.613345E-02   -1.860871E-01
    2.476194E-02   -2.021013E-01
    1.306161E-01   -1.487217E-01
    1.863710E-01   -4.785963E-02
    1.758835E-01    6.367199E-02
    1.063497E-01    1.474964E-01
    4.585792E-03    1.767102E-01
   -9.313779E-02    1.444122E-01
   -1.539144E-01    6.493359E-02
   -1.591719E-01   -3.218813E-02
   -1.101802E-01   -1.130582E-01
   -2.653899E-02   -1.511534E-01
    6.150654E-02   -1.359182E-01
    1.238603E-01   -7.544370E-02
    1.407967E-01    7.281690E-03
    1.090712E-01    8.299036E-02
    4.211430E-02    1.264024E-01
   -3.543829E-02    1.245767E-01
   -9.670884E-02    8.062473E-02
   -1.218326E-01    1.175514E-02
   -1.042732E-01   -5.731310E-02
   -5.233013E-02   -1.031546E-01
    1.449729E-02   -1.115058E-01
    7.273594E-02   -8.159694E-02
    1.031148E-01   -2.567067E-02
    9.686709E-02    3.588327E-02
    5.812903E-02    8.188519E-02
    1.812843E-03    9.760357E-02
   -5.202165E-02    7.936968E-02
   -8.526078E-02    3.523162E-02
   -8.776862E-02   -1.842345E-02
   -6.038460E-02   -6.288294E-02
   -1.403550E-02   -8.358048E-02
    3.451931E-02   -7.480784E-02
    6.870677E-02   -4.115801E-02
    7.772271E-02    4.594511E-03
    5.989461E-02    4.627403E-02
    2.274212E-02    6.997489E-02
   -2.007742E-02    6.865087E-02
   -5.373643E-02    4.412671E-02
   -6.732766E-02    5.995445E-03
