 Vespa-Simulation Mixed Metabolite Output
 This file was generated by Vespa-Simulation. You can learn about and download Vespa here:
https://github.com/vespa-mrs/vespa/tree/main/vespa

 
 Output Path/Filename = /home/stud/casperc/bhome/Project1(DeepFit)/DeepFit-data-generation/DeepFitData_TE_20_lw18_2048p
 Output Loop Values = (1,1,1)  ( Loop 1 = 10, Loop 2 = 10, Loop3 Inactive )
 Output Comment
 ---------------------------------------------------------------------------
 
 
 Experiment Information
 ---------------------------------------------------------------------------
 --- Experiment 18b0168e-f5f0-4bd4-8d52-da93aba06c60 ---
 Name: SyntheticDataSetDeepFitTE20
 Public: False
 Created: 2024-10-08T09:55:07
 Comment (abbr.): 
 PI: Casper Cappelen
 b0: 127.740000
 Peak Search PPM low/high: -15.000000 / 15.000000
 Blend tol. PPM/phase: 0.001500 / 50.000000
 Pulse seq.: 43be13ae-de9a-40a1-9a2d-c872d8bjs100 (PRESS Ideal)
 0 User static parameters: 
 22 Metabolites: 2-hydroxyglutarate, alanine, choline-trimethyl, creatine, ethanolamine, gaba, glucose-beta, glutamate, glutamine, glutathione-glutamate, glutathione-glycine-cysteine, glycine, GPC-pcholine2, lactate, myo-inositol, n-acetylaspartate, NAAG-truncated, phosphocreatine, phosphorylcholine-trimethyl, phosphorylethanolamine, pyruvate, taurine
 22 Simulations: (not shown)
 
 Metabolite Formatting Information
 ---------------------------------------------------------------------------
 Name=2-hydroxyglutarate Abbr=2HG Scale=1.0 Shift=0.0 PPM Start=-3.1207465171441986 PPM End=12.528391440425866
 Name=alanine Abbr=Ala Scale=1.0 Shift=0.0 PPM Start=-3.1207465171441986 PPM End=12.528391440425866
 Name=choline-trimethyl Abbr=Cho Scale=1.0 Shift=0.0 PPM Start=-3.1207465171441986 PPM End=12.528391440425866
 Name=creatine Abbr=Cr Scale=1.0 Shift=0.0 PPM Start=-3.1207465171441986 PPM End=12.528391440425866
 Name=ethanolamine Abbr=ETA Scale=1.0 Shift=0.0 PPM Start=-3.1207465171441986 PPM End=12.528391440425866
 Name=gaba Abbr=GABA Scale=1.0 Shift=0.0 PPM Start=-3.1207465171441986 PPM End=12.528391440425866
 Name=glucose-beta Abbr=Glc Scale=1.0 Shift=0.0 PPM Start=-3.1207465171441986 PPM End=12.528391440425866
 Name=glutamate Abbr=Glu Scale=1.0 Shift=0.0 PPM Start=-3.1207465171441986 PPM End=12.528391440425866
 Name=glutamine Abbr=Gln Scale=1.0 Shift=0.0 PPM Start=-3.1207465171441986 PPM End=12.528391440425866
 Name=glycine Abbr=Gly Scale=1.0 Shift=0.0 PPM Start=-3.1207465171441986 PPM End=12.528391440425866
 Name=GPC-pcholine2 Abbr=GPC Scale=1.0 Shift=0.0 PPM Start=-3.1207465171441986 PPM End=12.528391440425866
 Name=lactate Abbr=Lac Scale=1.0 Shift=0.0 PPM Start=-3.1207465171441986 PPM End=12.528391440425866
 Name=myo-inositol Abbr=mI Scale=1.0 Shift=0.0 PPM Start=-3.1207465171441986 PPM End=12.528391440425866
 Name=n-acetylaspartate Abbr=NAA Scale=1.0 Shift=0.0 PPM Start=-3.1207465171441986 PPM End=12.528391440425866
 Name=NAAG-truncated Abbr=NAAG Scale=1.0 Shift=0.0 PPM Start=-3.1207465171441986 PPM End=12.528391440425866
 Name=phosphocreatine Abbr=PCr Scale=1.0 Shift=0.0 PPM Start=-3.1207465171441986 PPM End=12.528391440425866
 Name=phosphorylcholine-trimethyl Abbr=PCho Scale=1.0 Shift=0.0 PPM Start=-3.1207465171441986 PPM End=12.528391440425866
 Name=phosphorylethanolamine Abbr=PE Scale=1.0 Shift=0.0 PPM Start=-3.1207465171441986 PPM End=12.528391440425866
 Name=pyruvate Abbr=Pyr Scale=1.0 Shift=0.0 PPM Start=-3.1207465171441986 PPM End=12.528391440425866
 Name=taurine Abbr=Tau Scale=1.0 Shift=0.0 PPM Start=-3.1207465171441986 PPM End=12.528391440425866
 Name=glutathione-glutamate+glutathione-glycine-cysteine Abbr=GSH Scale=1.0 Shift=0.0 PPM Start=-3.1207565171441987 PPM End=12.528
   Mixture of [metab*scale] = glutathione-glutamate*1.000000 + glutathione-glycine-cysteine*1.000000
 
 ===========================================================================
 This LCModel format RAW file was created using the 
 Vespa-Simulation spectral simulation program using 
 the following settings and parameters 
 
 Sweep Width = 2000.0 Hz 
 Vector Size = 2048 points 
 Apodization = 18.0 Hz Lorentzian broadening
 B0 Field    = 127.74 MHz 
 Ref Singlet = False
  
 This data has been FFTd to be in the FREQUENCY domain
 
 $NMID ID='PCho'
 FMTDAT='(2E16.6)'
 VOLUME=1.0
 TRAMP=1.0
 $END
    5.229712E+00    1.454606E+01
    5.237003E+00    1.462531E+01
    5.244408E+00    1.470535E+01
    5.251928E+00    1.478619E+01
    5.259566E+00    1.486785E+01
    5.267324E+00    1.495034E+01
    5.275208E+00    1.503367E+01
    5.283221E+00    1.511786E+01
    5.291366E+00    1.520292E+01
    5.299649E+00    1.528886E+01
    5.308073E+00    1.537569E+01
    5.316638E+00    1.546343E+01
    5.325347E+00    1.555209E+01
    5.334198E+00    1.564167E+01
    5.343194E+00    1.573221E+01
    5.352333E+00    1.582370E+01
    5.361618E+00    1.591618E+01
    5.371050E+00    1.600967E+01
    5.380635E+00    1.610417E+01
    5.390377E+00    1.619971E+01
    5.400280E+00    1.629632E+01
    5.410350E+00    1.639400E+01
    5.420592E+00    1.649277E+01
    5.431012E+00    1.659267E+01
    5.441615E+00    1.669370E+01
    5.452409E+00    1.679588E+01
    5.463397E+00    1.689924E+01
    5.474585E+00    1.700379E+01
    5.485978E+00    1.710956E+01
    5.497580E+00    1.721655E+01
    5.509396E+00    1.732480E+01
    5.521430E+00    1.743433E+01
    5.533686E+00    1.754515E+01
    5.546169E+00    1.765730E+01
    5.558885E+00    1.777080E+01
    5.571839E+00    1.788567E+01
    5.585038E+00    1.800194E+01
    5.598486E+00    1.811963E+01
    5.612190E+00    1.823878E+01
    5.626157E+00    1.835941E+01
    5.640395E+00    1.848154E+01
    5.654910E+00    1.860522E+01
    5.669710E+00    1.873046E+01
    5.684803E+00    1.885730E+01
    5.700197E+00    1.898576E+01
    5.715898E+00    1.911588E+01
    5.731915E+00    1.924770E+01
    5.748255E+00    1.938124E+01
    5.764925E+00    1.951654E+01
    5.781936E+00    1.965363E+01
    5.799296E+00    1.979256E+01
    5.817014E+00    1.993337E+01
    5.835102E+00    2.007608E+01
    5.853568E+00    2.022074E+01
    5.872425E+00    2.036739E+01
    5.891683E+00    2.051608E+01
    5.911354E+00    2.066685E+01
    5.931452E+00    2.081974E+01
    5.951990E+00    2.097479E+01
    5.972980E+00    2.113206E+01
    5.994438E+00    2.129159E+01
    6.016375E+00    2.145343E+01
    6.038806E+00    2.161763E+01
    6.061745E+00    2.178424E+01
    6.085207E+00    2.195332E+01
    6.109208E+00    2.212492E+01
    6.133765E+00    2.229911E+01
    6.158894E+00    2.247593E+01
    6.184612E+00    2.265545E+01
    6.210940E+00    2.283774E+01
    6.237895E+00    2.302286E+01
    6.265498E+00    2.321087E+01
    6.293771E+00    2.340186E+01
    6.322736E+00    2.359587E+01
    6.352417E+00    2.379300E+01
    6.382838E+00    2.399332E+01
    6.414023E+00    2.419690E+01
    6.445997E+00    2.440382E+01
    6.478788E+00    2.461417E+01
    6.512421E+00    2.482804E+01
    6.546926E+00    2.504551E+01
    6.582333E+00    2.526667E+01
    6.618674E+00    2.549162E+01
    6.655980E+00    2.572047E+01
    6.694288E+00    2.595330E+01
    6.733632E+00    2.619024E+01
    6.774052E+00    2.643138E+01
    6.815586E+00    2.667685E+01
    6.858278E+00    2.692676E+01
    6.902170E+00    2.718123E+01
    6.947311E+00    2.744039E+01
    6.993747E+00    2.770437E+01
    7.041528E+00    2.797330E+01
    7.090707E+00    2.824732E+01
    7.141336E+00    2.852657E+01
    7.193472E+00    2.881122E+01
    7.247174E+00    2.910142E+01
    7.302505E+00    2.939732E+01
    7.359531E+00    2.969911E+01
    7.418322E+00    3.000696E+01
    7.478953E+00    3.032105E+01
    7.541503E+00    3.064158E+01
    7.606053E+00    3.096875E+01
    7.672692E+00    3.130275E+01
    7.741508E+00    3.164382E+01
    7.812597E+00    3.199216E+01
    7.886058E+00    3.234801E+01
    7.961996E+00    3.271163E+01
    8.040522E+00    3.308326E+01
    8.121755E+00    3.346317E+01
    8.205821E+00    3.385164E+01
    8.292852E+00    3.424897E+01
    8.382990E+00    3.465545E+01
    8.476385E+00    3.507141E+01
    8.573196E+00    3.549717E+01
    8.673590E+00    3.593309E+01
    8.777747E+00    3.637952E+01
    8.885853E+00    3.683685E+01
    8.998112E+00    3.730548E+01
    9.114736E+00    3.778583E+01
    9.235954E+00    3.827833E+01
    9.362008E+00    3.878345E+01
    9.493158E+00    3.930167E+01
    9.629681E+00    3.983350E+01
    9.771873E+00    4.037949E+01
    9.920052E+00    4.094018E+01
    1.007455E+01    4.151619E+01
    1.023575E+01    4.210812E+01
    1.040401E+01    4.271664E+01
    1.057978E+01    4.334244E+01
    1.076348E+01    4.398625E+01
    1.095562E+01    4.464885E+01
    1.115669E+01    4.533105E+01
    1.136727E+01    4.603371E+01
    1.158796E+01    4.675775E+01
    1.181941E+01    4.750414E+01
    1.206232E+01    4.827389E+01
    1.231746E+01    4.906809E+01
    1.258565E+01    4.988790E+01
    1.286779E+01    5.073453E+01
    1.316486E+01    5.160928E+01
    1.347792E+01    5.251352E+01
    1.380812E+01    5.344872E+01
    1.415673E+01    5.441644E+01
    1.452512E+01    5.541834E+01
    1.491481E+01    5.645617E+01
    1.532744E+01    5.753184E+01
    1.576482E+01    5.864734E+01
    1.622896E+01    5.980481E+01
    1.672204E+01    6.100656E+01
    1.724649E+01    6.225502E+01
    1.780499E+01    6.355282E+01
    1.840049E+01    6.490274E+01
    1.903629E+01    6.630777E+01
    1.971604E+01    6.777113E+01
    2.044380E+01    6.929622E+01
    2.122413E+01    7.088672E+01
    2.206208E+01    7.254653E+01
    2.296337E+01    7.427985E+01
    2.393437E+01    7.609113E+01
    2.498229E+01    7.798515E+01
    2.611524E+01    7.996697E+01
    2.734243E+01    8.204200E+01
    2.867427E+01    8.421592E+01
    3.012262E+01    8.649477E+01
    3.170099E+01    8.888484E+01
    3.342483E+01    9.139269E+01
    3.531185E+01    9.402508E+01
    3.738239E+01    9.678886E+01
    3.965990E+01    9.969083E+01
    4.217145E+01    1.027376E+02
    4.494840E+01    1.059351E+02
