 Vespa-Simulation Mixed Metabolite Output
 This file was generated by Vespa-Simulation. You can learn about and download Vespa here:
https://github.com/vespa-mrs/vespa/tree/main/vespa

 
 Output Path/Filename = /home/stud/casperc/bhome/Project1(DeepFit)/DeepFit-data-generation/DeepFitData_TE_20_lw18_2048p
 Output Loop Values = (1,1,1)  ( Loop 1 = 10, Loop 2 = 10, Loop3 Inactive )
 Output Comment
 ---------------------------------------------------------------------------
 
 
 Experiment Information
 ---------------------------------------------------------------------------
 --- Experiment 18b0168e-f5f0-4bd4-8d52-da93aba06c60 ---
 Name: SyntheticDataSetDeepFitTE20
 Public: False
 Created: 2024-10-08T09:55:07
 Comment (abbr.): 
 PI: Casper Cappelen
 b0: 127.740000
 Peak Search PPM low/high: -15.000000 / 15.000000
 Blend tol. PPM/phase: 0.001500 / 50.000000
 Pulse seq.: 43be13ae-de9a-40a1-9a2d-c872d8bjs100 (PRESS Ideal)
 0 User static parameters: 
 22 Metabolites: 2-hydroxyglutarate, alanine, choline-trimethyl, creatine, ethanolamine, gaba, glucose-beta, glutamate, glutamine, glutathione-glutamate, glutathione-glycine-cysteine, glycine, GPC-pcholine2, lactate, myo-inositol, n-acetylaspartate, NAAG-truncated, phosphocreatine, phosphorylcholine-trimethyl, phosphorylethanolamine, pyruvate, taurine
 22 Simulations: (not shown)
 
 Metabolite Formatting Information
 ---------------------------------------------------------------------------
 Name=2-hydroxyglutarate Abbr=2HG Scale=1.0 Shift=0.0 PPM Start=-3.1207465171441986 PPM End=12.528391440425866
 Name=alanine Abbr=Ala Scale=1.0 Shift=0.0 PPM Start=-3.1207465171441986 PPM End=12.528391440425866
 Name=choline-trimethyl Abbr=Cho Scale=1.0 Shift=0.0 PPM Start=-3.1207465171441986 PPM End=12.528391440425866
 Name=creatine Abbr=Cr Scale=1.0 Shift=0.0 PPM Start=-3.1207465171441986 PPM End=12.528391440425866
 Name=ethanolamine Abbr=ETA Scale=1.0 Shift=0.0 PPM Start=-3.1207465171441986 PPM End=12.528391440425866
 Name=gaba Abbr=GABA Scale=1.0 Shift=0.0 PPM Start=-3.1207465171441986 PPM End=12.528391440425866
 Name=glucose-beta Abbr=Glc Scale=1.0 Shift=0.0 PPM Start=-3.1207465171441986 PPM End=12.528391440425866
 Name=glutamate Abbr=Glu Scale=1.0 Shift=0.0 PPM Start=-3.1207465171441986 PPM End=12.528391440425866
 Name=glutamine Abbr=Gln Scale=1.0 Shift=0.0 PPM Start=-3.1207465171441986 PPM End=12.528391440425866
 Name=glycine Abbr=Gly Scale=1.0 Shift=0.0 PPM Start=-3.1207465171441986 PPM End=12.528391440425866
 Name=GPC-pcholine2 Abbr=GPC Scale=1.0 Shift=0.0 PPM Start=-3.1207465171441986 PPM End=12.528391440425866
 Name=lactate Abbr=Lac Scale=1.0 Shift=0.0 PPM Start=-3.1207465171441986 PPM End=12.528391440425866
 Name=myo-inositol Abbr=mI Scale=1.0 Shift=0.0 PPM Start=-3.1207465171441986 PPM End=12.528391440425866
 Name=n-acetylaspartate Abbr=NAA Scale=1.0 Shift=0.0 PPM Start=-3.1207465171441986 PPM End=12.528391440425866
 Name=NAAG-truncated Abbr=NAAG Scale=1.0 Shift=0.0 PPM Start=-3.1207465171441986 PPM End=12.528391440425866
 Name=phosphocreatine Abbr=PCr Scale=1.0 Shift=0.0 PPM Start=-3.1207465171441986 PPM End=12.528391440425866
 Name=phosphorylcholine-trimethyl Abbr=PCho Scale=1.0 Shift=0.0 PPM Start=-3.1207465171441986 PPM End=12.528391440425866
 Name=phosphorylethanolamine Abbr=PE Scale=1.0 Shift=0.0 PPM Start=-3.1207465171441986 PPM End=12.528391440425866
 Name=pyruvate Abbr=Pyr Scale=1.0 Shift=0.0 PPM Start=-3.1207465171441986 PPM End=12.528391440425866
 Name=taurine Abbr=Tau Scale=1.0 Shift=0.0 PPM Start=-3.1207465171441986 PPM End=12.528391440425866
 Name=glutathione-glutamate+glutathione-glycine-cysteine Abbr=GSH Scale=1.0 Shift=0.0 PPM Start=-3.1207565171441987 PPM End=12.528
   Mixture of [metab*scale] = glutathione-glutamate*1.000000 + glutathione-glycine-cysteine*1.000000
 
 ===========================================================================
 This LCModel format RAW file was created using the 
 Vespa-Simulation spectral simulation program using 
 the following settings and parameters 
 
 Sweep Width = 2000.0 Hz 
 Vector Size = 2048 points 
 Apodization = 18.0 Hz Lorentzian broadening
 B0 Field    = 127.74 MHz 
 Ref Singlet = False
  
 $NMID ID='PCr'
 FMTDAT='(2E16.6)'
 VOLUME=1.0
 TRAMP=1.0
 $END
    7.000000E+00    1.634841E-16
    5.335675E+00    8.982990E-01
    1.779794E+00    2.089037E+00
   -1.579466E+00    3.240767E+00
   -3.164299E+00    3.529365E+00
   -2.788336E+00    2.466119E+00
   -1.391451E+00    5.233600E-01
   -8.036997E-02   -1.103971E+00
    6.069448E-01   -1.425866E+00
    7.059469E-01   -4.403186E-01
    3.717949E-01    9.177102E-01
   -3.971654E-01    1.574280E+00
   -1.566133E+00    1.123560E+00
   -2.719665E+00   -2.543033E-02
   -3.095831E+00   -1.167320E+00
   -2.124463E+00   -1.900992E+00
   -1.267932E-02   -2.259342E+00
    2.221817E+00   -2.366871E+00
    3.401568E+00   -2.105949E+00
    3.020833E+00   -1.208919E+00
    1.566228E+00    3.126452E-01
    7.684659E-02    1.896851E+00
   -6.515034E-01    2.693590E+00
   -5.474996E-01    2.206368E+00
   -9.966975E-02    7.509314E-01
    1.940137E-01   -7.108771E-01
    2.149578E-01   -1.258172E+00
    1.480713E-01   -6.573740E-01
    1.263145E-01    5.449230E-01
    2.433645E-02    1.504201E+00
   -3.801634E-01    1.687728E+00
   -1.073044E+00    1.127287E+00
   -1.682443E+00    2.098928E-01
   -1.735711E+00   -6.945173E-01
   -1.070541E+00   -1.408340E+00
   -9.262991E-03   -1.847659E+00
    8.764351E-01   -1.876186E+00
    1.199692E+00   -1.350926E+00
    1.006446E+00   -3.386551E-01
    6.433588E-01    7.571469E-01
    4.089163E-01    1.370727E+00
    3.287734E-01    1.167294E+00
    2.390763E-01    3.264247E-01
    4.493135E-02   -5.534938E-01
   -1.372163E-01   -8.784872E-01
   -1.028547E-01   -4.725895E-01
    1.876981E-01    3.429387E-01
    5.010845E-01    1.037043E+00
    4.992236E-01    1.256028E+00
    4.073206E-02    1.000024E+00
   -6.651121E-01    5.027751E-01
   -1.199317E+00   -9.647090E-03
   -1.247984E+00   -4.448012E-01
   -8.197458E-01   -7.835017E-01
   -1.969239E-01   -9.643471E-01
    3.053453E-01   -8.791048E-01
    5.462575E-01   -4.972716E-01
    5.744131E-01    2.509440E-02
    4.925938E-01    3.995020E-01
    3.418143E-01    4.081848E-01
    1.183016E-01    8.286764E-02
   -1.272061E-01   -3.089046E-01
   -2.520658E-01   -4.685333E-01
   -1.199606E-01   -2.889963E-01
    2.482180E-01    8.967967E-02
    6.304902E-01    4.223158E-01
    7.392533E-01    5.565533E-01
    4.393206E-01    5.139983E-01
   -1.355329E-01    4.084904E-01
   -6.705561E-01    3.083023E-01
   -8.911524E-01    1.844462E-01
   -7.375505E-01   -1.681245E-02
   -3.655756E-01   -2.701214E-01
   -1.966110E-04   -4.556125E-01
    2.183236E-01   -4.552352E-01
    2.787762E-01   -2.672183E-01
    2.355070E-01   -2.344856E-02
    1.316672E-01    1.118975E-01
   -1.141892E-02    7.106473E-02
   -1.508893E-01   -7.554328E-02
   -2.019196E-01   -1.943611E-01
   -8.851474E-02   -2.030783E-01
    1.732116E-01   -1.200268E-01
    4.485016E-01   -1.646454E-02
    5.602988E-01    6.580970E-02
    4.175327E-01    1.440169E-01
    8.864963E-02    2.476286E-01
   -2.446584E-01    3.541932E-01
   -4.164905E-01    3.845004E-01
   -3.830128E-01    2.709420E-01
   -2.266593E-01    3.461469E-02
   -7.032114E-02   -2.078723E-01
    1.488714E-02   -3.231625E-01
    3.446035E-02   -2.605216E-01
    2.663915E-02   -8.697518E-02
    9.596538E-03    6.926324E-02
   -2.577232E-02    1.149785E-01
   -8.039328E-02    4.752619E-02
   -1.189857E-01   -6.651252E-02
   -8.901910E-02   -1.562342E-01
    2.729387E-02   -1.917284E-01
    1.812934E-01   -1.785899E-01
    2.839826E-01   -1.251710E-01
    2.721796E-01   -2.800318E-02
    1.571031E-01    1.079546E-01
    1.276373E-02    2.426538E-01
   -8.401235E-02    3.079009E-01
   -1.078909E-01    2.539734E-01
   -8.915039E-02    9.734479E-02
   -7.185850E-02   -7.785423E-02
   -7.089284E-02   -1.736450E-01
   -6.756986E-02   -1.464028E-01
   -4.173560E-02   -3.438184E-02
   -2.417038E-03    7.603694E-02
    1.637086E-02    1.146835E-01
   -9.521712E-03    7.008518E-02
   -6.498071E-02   -1.787595E-02
   -1.027256E-01   -9.851465E-02
   -8.213347E-02   -1.441497E-01
   -4.364602E-03   -1.528400E-01
    8.791538E-02   -1.298449E-01
    1.446596E-01   -7.536872E-02
    1.447896E-01    7.341857E-03
    1.042823E-01    9.662143E-02
    5.398338E-02    1.534726E-01
    1.233332E-02    1.459797E-01
   -2.141433E-02    7.738317E-02
   -5.205483E-02   -9.827221E-03
   -7.242182E-02   -6.173724E-02
   -6.641391E-02   -5.149907E-02
   -2.866624E-02    3.225105E-03
    2.095619E-02    5.745494E-02
    4.649542E-02    7.443762E-02
    2.386528E-02    4.942261E-02
   -3.680287E-02    4.776400E-03
   -9.558819E-02   -3.398889E-02
   -1.116674E-01   -5.713695E-02
   -7.282678E-02   -6.955336E-02
   -1.885438E-03   -7.602221E-02
    6.285586E-02   -7.147131E-02
    9.464779E-02   -4.699707E-02
    9.094654E-02   -4.124384E-03
    6.570632E-02    3.944690E-02
    3.354811E-02    6.076800E-02
    1.851241E-03    5.012775E-02
   -2.513890E-02    1.969985E-02
   -3.974854E-02   -6.170902E-03
   -3.291232E-02   -1.042185E-02
   -4.398904E-03    4.814853E-03
    3.030080E-02    2.341792E-02
    4.668153E-02    3.108539E-02
    2.879374E-02    2.637739E-02
   -1.681571E-02    1.782055E-02
   -6.372525E-02    1.209759E-02
   -8.387823E-02    6.484960E-03
   -6.692605E-02   -6.829725E-03
   -2.550709E-02   -2.963195E-02
    1.632412E-02   -5.194748E-02
    4.048334E-02   -5.846723E-02
    4.396408E-02   -4.171206E-02
    3.481293E-02   -9.635785E-03
    2.190603E-02    1.957960E-02
    9.064945E-03    3.107944E-02
   -2.785091E-03    2.344509E-02
   -1.068834E-02    7.376446E-03
   -9.368775E-03   -4.454235E-03
    3.243253E-03   -6.600731E-03
    2.088420E-02   -1.768713E-03
    3.099936E-02    5.128695E-03
    2.378472E-02    1.230853E-02
    6.326169E-04    2.048603E-02
   -2.588572E-02    2.819777E-02
   -4.102352E-02    2.960622E-02
   -3.835486E-02    1.854721E-02
