 Vespa-Simulation Mixed Metabolite Output
 This file was generated by Vespa-Simulation. You can learn about and download Vespa here:
https://github.com/vespa-mrs/vespa/tree/main/vespa

 
 Output Path/Filename = /home/stud/casperc/bhome/Project1(DeepFit)/DeepFit-data-generation/DeepFitData_TE_20_lw18_2048p
 Output Loop Values = (1,1,1)  ( Loop 1 = 10, Loop 2 = 10, Loop3 Inactive )
 Output Comment
 ---------------------------------------------------------------------------
 
 
 Experiment Information
 ---------------------------------------------------------------------------
 --- Experiment 18b0168e-f5f0-4bd4-8d52-da93aba06c60 ---
 Name: SyntheticDataSetDeepFitTE20
 Public: False
 Created: 2024-10-08T09:55:07
 Comment (abbr.): 
 PI: Casper Cappelen
 b0: 127.740000
 Peak Search PPM low/high: -15.000000 / 15.000000
 Blend tol. PPM/phase: 0.001500 / 50.000000
 Pulse seq.: 43be13ae-de9a-40a1-9a2d-c872d8bjs100 (PRESS Ideal)
 0 User static parameters: 
 22 Metabolites: 2-hydroxyglutarate, alanine, choline-trimethyl, creatine, ethanolamine, gaba, glucose-beta, glutamate, glutamine, glutathione-glutamate, glutathione-glycine-cysteine, glycine, GPC-pcholine2, lactate, myo-inositol, n-acetylaspartate, NAAG-truncated, phosphocreatine, phosphorylcholine-trimethyl, phosphorylethanolamine, pyruvate, taurine
 22 Simulations: (not shown)
 
 Metabolite Formatting Information
 ---------------------------------------------------------------------------
 Name=2-hydroxyglutarate Abbr=2HG Scale=1.0 Shift=0.0 PPM Start=-3.1207465171441986 PPM End=12.528391440425866
 Name=alanine Abbr=Ala Scale=1.0 Shift=0.0 PPM Start=-3.1207465171441986 PPM End=12.528391440425866
 Name=choline-trimethyl Abbr=Cho Scale=1.0 Shift=0.0 PPM Start=-3.1207465171441986 PPM End=12.528391440425866
 Name=creatine Abbr=Cr Scale=1.0 Shift=0.0 PPM Start=-3.1207465171441986 PPM End=12.528391440425866
 Name=ethanolamine Abbr=ETA Scale=1.0 Shift=0.0 PPM Start=-3.1207465171441986 PPM End=12.528391440425866
 Name=gaba Abbr=GABA Scale=1.0 Shift=0.0 PPM Start=-3.1207465171441986 PPM End=12.528391440425866
 Name=glucose-beta Abbr=Glc Scale=1.0 Shift=0.0 PPM Start=-3.1207465171441986 PPM End=12.528391440425866
 Name=glutamate Abbr=Glu Scale=1.0 Shift=0.0 PPM Start=-3.1207465171441986 PPM End=12.528391440425866
 Name=glutamine Abbr=Gln Scale=1.0 Shift=0.0 PPM Start=-3.1207465171441986 PPM End=12.528391440425866
 Name=glycine Abbr=Gly Scale=1.0 Shift=0.0 PPM Start=-3.1207465171441986 PPM End=12.528391440425866
 Name=GPC-pcholine2 Abbr=GPC Scale=1.0 Shift=0.0 PPM Start=-3.1207465171441986 PPM End=12.528391440425866
 Name=lactate Abbr=Lac Scale=1.0 Shift=0.0 PPM Start=-3.1207465171441986 PPM End=12.528391440425866
 Name=myo-inositol Abbr=mI Scale=1.0 Shift=0.0 PPM Start=-3.1207465171441986 PPM End=12.528391440425866
 Name=n-acetylaspartate Abbr=NAA Scale=1.0 Shift=0.0 PPM Start=-3.1207465171441986 PPM End=12.528391440425866
 Name=NAAG-truncated Abbr=NAAG Scale=1.0 Shift=0.0 PPM Start=-3.1207465171441986 PPM End=12.528391440425866
 Name=phosphocreatine Abbr=PCr Scale=1.0 Shift=0.0 PPM Start=-3.1207465171441986 PPM End=12.528391440425866
 Name=phosphorylcholine-trimethyl Abbr=PCho Scale=1.0 Shift=0.0 PPM Start=-3.1207465171441986 PPM End=12.528391440425866
 Name=phosphorylethanolamine Abbr=PE Scale=1.0 Shift=0.0 PPM Start=-3.1207465171441986 PPM End=12.528391440425866
 Name=pyruvate Abbr=Pyr Scale=1.0 Shift=0.0 PPM Start=-3.1207465171441986 PPM End=12.528391440425866
 Name=taurine Abbr=Tau Scale=1.0 Shift=0.0 PPM Start=-3.1207465171441986 PPM End=12.528391440425866
 Name=glutathione-glutamate+glutathione-glycine-cysteine Abbr=GSH Scale=1.0 Shift=0.0 PPM Start=-3.1207565171441987 PPM End=12.528
   Mixture of [metab*scale] = glutathione-glutamate*1.000000 + glutathione-glycine-cysteine*1.000000
 
 ===========================================================================
 This LCModel format RAW file was created using the 
 Vespa-Simulation spectral simulation program using 
 the following settings and parameters 
 
 Sweep Width = 2000.0 Hz 
 Vector Size = 2048 points 
 Apodization = 18.0 Hz Lorentzian broadening
 B0 Field    = 127.74 MHz 
 Ref Singlet = False
  
 This data has been FFTd to be in the FREQUENCY domain
 
 $NMID ID='PCr'
 FMTDAT='(2E16.6)'
 VOLUME=1.0
 TRAMP=1.0
 $END
    4.368104E+00    8.533718E+00
    4.381016E+00    8.627431E+00
    4.394313E+00    8.722522E+00
    4.408008E+00    8.819031E+00
    4.422118E+00    8.917001E+00
    4.436658E+00    9.016474E+00
    4.451647E+00    9.117495E+00
    4.467102E+00    9.220112E+00
    4.483043E+00    9.324373E+00
    4.499489E+00    9.430327E+00
    4.516462E+00    9.538027E+00
    4.533984E+00    9.647527E+00
    4.552078E+00    9.758883E+00
    4.570768E+00    9.872156E+00
    4.590079E+00    9.987406E+00
    4.610041E+00    1.010470E+01
    4.630681E+00    1.022410E+01
    4.652031E+00    1.034568E+01
    4.674124E+00    1.046951E+01
    4.696994E+00    1.059567E+01
    4.720678E+00    1.072424E+01
    4.745214E+00    1.085529E+01
    4.770645E+00    1.098892E+01
    4.797014E+00    1.112523E+01
    4.824368E+00    1.126429E+01
    4.852756E+00    1.140621E+01
    4.882231E+00    1.155110E+01
    4.912850E+00    1.169907E+01
    4.944673E+00    1.185023E+01
    4.977764E+00    1.200470E+01
    5.012192E+00    1.216260E+01
    5.048030E+00    1.232408E+01
    5.085356E+00    1.248927E+01
    5.124255E+00    1.265831E+01
    5.164817E+00    1.283136E+01
    5.207138E+00    1.300859E+01
    5.251322E+00    1.319017E+01
    5.297480E+00    1.337627E+01
    5.345731E+00    1.356709E+01
    5.396206E+00    1.376284E+01
    5.449043E+00    1.396371E+01
    5.504394E+00    1.416995E+01
    5.562421E+00    1.438180E+01
    5.623302E+00    1.459949E+01
    5.687227E+00    1.482331E+01
    5.754406E+00    1.505355E+01
    5.825065E+00    1.529049E+01
    5.899451E+00    1.553447E+01
    5.977833E+00    1.578583E+01
    6.060504E+00    1.604492E+01
    6.147785E+00    1.631214E+01
    6.240025E+00    1.658789E+01
    6.337610E+00    1.687262E+01
    6.440961E+00    1.716678E+01
    6.550541E+00    1.747088E+01
    6.666862E+00    1.778545E+01
    6.790487E+00    1.811106E+01
    6.922041E+00    1.844831E+01
    7.062213E+00    1.879785E+01
    7.211771E+00    1.916038E+01
    7.371568E+00    1.953664E+01
    7.542555E+00    1.992741E+01
    7.725793E+00    2.033356E+01
    7.922471E+00    2.075597E+01
    8.133923E+00    2.119563E+01
    8.361647E+00    2.165356E+01
    8.607332E+00    2.213087E+01
    8.872888E+00    2.262871E+01
    9.160475E+00    2.314834E+01
    9.472547E+00    2.369105E+01
    9.811896E+00    2.425823E+01
    1.018171E+01    2.485132E+01
    1.058564E+01    2.547181E+01
    1.102787E+01    2.612122E+01
    1.151321E+01    2.680108E+01
    1.204721E+01    2.751292E+01
    1.263631E+01    2.825814E+01
    1.328794E+01    2.903803E+01
    1.401074E+01    2.985359E+01
    1.481477E+01    3.070540E+01
    1.571176E+01    3.159342E+01
    1.671537E+01    3.251669E+01
    1.784153E+01    3.347291E+01
    1.910880E+01    3.445793E+01
    2.053869E+01    3.546492E+01
    2.215607E+01    3.648339E+01
    2.398934E+01    3.749777E+01
    2.607052E+01    3.848550E+01
    2.843485E+01    3.941461E+01
    3.111971E+01    4.024051E+01
    3.416226E+01    4.090217E+01
    3.759517E+01    4.131769E+01
    4.143943E+01    4.137994E+01
    4.569318E+01    4.095354E+01
    5.031583E+01    3.987568E+01
    5.520784E+01    3.796458E+01
    6.018966E+01    3.504069E+01
    6.498766E+01    3.096440E+01
    6.924022E+01    2.568890E+01
    7.253775E+01    1.931539E+01
    7.450051E+01    1.212518E+01
    7.487572E+01    4.560532E+00
    7.361385E+01   -2.854769E+00
    7.088462E+01   -9.629678E+00
    6.702363E+01   -1.540584E+01
    6.243878E+01   -2.000411E+01
    5.752013E+01   -2.341219E+01
    5.258263E+01   -2.573587E+01
    4.784644E+01   -2.714275E+01
    4.344395E+01   -2.781714E+01
    3.943910E+01   -2.793190E+01
    3.584860E+01   -2.763493E+01
    3.265991E+01   -2.704556E+01
    2.984443E+01   -2.625631E+01
    2.736633E+01   -2.533682E+01
    2.518795E+01   -2.433839E+01
    2.327296E+01   -2.329810E+01
    2.158785E+01   -2.224227E+01
    2.010262E+01   -2.118927E+01
    1.879091E+01   -2.015159E+01
    1.762978E+01   -1.913750E+01
    1.659944E+01   -1.815217E+01
    1.568288E+01   -1.719859E+01
    1.486550E+01   -1.627822E+01
    1.413478E+01   -1.539141E+01
    1.348001E+01   -1.453777E+01
    1.289197E+01   -1.371640E+01
    1.236276E+01   -1.292610E+01
    1.188555E+01   -1.216541E+01
    1.145445E+01   -1.143281E+01
    1.106439E+01   -1.072669E+01
    1.071095E+01   -1.004546E+01
    1.039030E+01   -9.387518E+00
    1.009909E+01   -8.751330E+00
    9.834412E+00   -8.135404E+00
    9.593724E+00   -7.538312E+00
    9.374788E+00   -6.958690E+00
    9.175643E+00   -6.395239E+00
    8.994565E+00   -5.846728E+00
    8.830035E+00   -5.311986E+00
    8.680713E+00   -4.789903E+00
    8.545416E+00   -4.279425E+00
    8.423100E+00   -3.779552E+00
    8.312844E+00   -3.289333E+00
    8.213833E+00   -2.807863E+00
    8.125351E+00   -2.334278E+00
    8.046765E+00   -1.867752E+00
    7.977520E+00   -1.407493E+00
    7.917132E+00   -9.527397E-01
    7.865178E+00   -5.027601E-01
    7.821294E+00   -5.684482E-02
    7.785168E+00    3.856936E-01
    7.756536E+00    8.255244E-01
    7.735181E+00    1.263302E+00
    7.720926E+00    1.699667E+00
    7.713637E+00    2.135252E+00
    7.713217E+00    2.570681E+00
    7.719606E+00    3.006576E+00
    7.732782E+00    3.443553E+00
    7.752757E+00    3.882233E+00
    7.779580E+00    4.323238E+00
    7.813334E+00    4.767195E+00
    7.854141E+00    5.214741E+00
    7.902160E+00    5.666523E+00
    7.957588E+00    6.123203E+00
    8.020665E+00    6.585457E+00
    8.091673E+00    7.053984E+00
    8.170940E+00    7.529501E+00
    8.258844E+00    8.012754E+00
    8.355817E+00    8.504514E+00
    8.462347E+00    9.005589E+00
    8.578989E+00    9.516818E+00
