 Vespa-Simulation Mixed Metabolite Output
 This file was generated by Vespa-Simulation. You can learn about and download Vespa here:
https://github.com/vespa-mrs/vespa/tree/main/vespa

 
 Output Path/Filename = /home/stud/casperc/bhome/Project1(DeepFit)/DeepFit-data-generation/DeepFitData_TE_20_lw18_2048p
 Output Loop Values = (1,1,1)  ( Loop 1 = 10, Loop 2 = 10, Loop3 Inactive )
 Output Comment
 ---------------------------------------------------------------------------
 
 
 Experiment Information
 ---------------------------------------------------------------------------
 --- Experiment 18b0168e-f5f0-4bd4-8d52-da93aba06c60 ---
 Name: SyntheticDataSetDeepFitTE20
 Public: False
 Created: 2024-10-08T09:55:07
 Comment (abbr.): 
 PI: Casper Cappelen
 b0: 127.740000
 Peak Search PPM low/high: -15.000000 / 15.000000
 Blend tol. PPM/phase: 0.001500 / 50.000000
 Pulse seq.: 43be13ae-de9a-40a1-9a2d-c872d8bjs100 (PRESS Ideal)
 0 User static parameters: 
 22 Metabolites: 2-hydroxyglutarate, alanine, choline-trimethyl, creatine, ethanolamine, gaba, glucose-beta, glutamate, glutamine, glutathione-glutamate, glutathione-glycine-cysteine, glycine, GPC-pcholine2, lactate, myo-inositol, n-acetylaspartate, NAAG-truncated, phosphocreatine, phosphorylcholine-trimethyl, phosphorylethanolamine, pyruvate, taurine
 22 Simulations: (not shown)
 
 Metabolite Formatting Information
 ---------------------------------------------------------------------------
 Name=2-hydroxyglutarate Abbr=2HG Scale=1.0 Shift=0.0 PPM Start=-3.1207465171441986 PPM End=12.528391440425866
 Name=alanine Abbr=Ala Scale=1.0 Shift=0.0 PPM Start=-3.1207465171441986 PPM End=12.528391440425866
 Name=choline-trimethyl Abbr=Cho Scale=1.0 Shift=0.0 PPM Start=-3.1207465171441986 PPM End=12.528391440425866
 Name=creatine Abbr=Cr Scale=1.0 Shift=0.0 PPM Start=-3.1207465171441986 PPM End=12.528391440425866
 Name=ethanolamine Abbr=ETA Scale=1.0 Shift=0.0 PPM Start=-3.1207465171441986 PPM End=12.528391440425866
 Name=gaba Abbr=GABA Scale=1.0 Shift=0.0 PPM Start=-3.1207465171441986 PPM End=12.528391440425866
 Name=glucose-beta Abbr=Glc Scale=1.0 Shift=0.0 PPM Start=-3.1207465171441986 PPM End=12.528391440425866
 Name=glutamate Abbr=Glu Scale=1.0 Shift=0.0 PPM Start=-3.1207465171441986 PPM End=12.528391440425866
 Name=glutamine Abbr=Gln Scale=1.0 Shift=0.0 PPM Start=-3.1207465171441986 PPM End=12.528391440425866
 Name=glycine Abbr=Gly Scale=1.0 Shift=0.0 PPM Start=-3.1207465171441986 PPM End=12.528391440425866
 Name=GPC-pcholine2 Abbr=GPC Scale=1.0 Shift=0.0 PPM Start=-3.1207465171441986 PPM End=12.528391440425866
 Name=lactate Abbr=Lac Scale=1.0 Shift=0.0 PPM Start=-3.1207465171441986 PPM End=12.528391440425866
 Name=myo-inositol Abbr=mI Scale=1.0 Shift=0.0 PPM Start=-3.1207465171441986 PPM End=12.528391440425866
 Name=n-acetylaspartate Abbr=NAA Scale=1.0 Shift=0.0 PPM Start=-3.1207465171441986 PPM End=12.528391440425866
 Name=NAAG-truncated Abbr=NAAG Scale=1.0 Shift=0.0 PPM Start=-3.1207465171441986 PPM End=12.528391440425866
 Name=phosphocreatine Abbr=PCr Scale=1.0 Shift=0.0 PPM Start=-3.1207465171441986 PPM End=12.528391440425866
 Name=phosphorylcholine-trimethyl Abbr=PCho Scale=1.0 Shift=0.0 PPM Start=-3.1207465171441986 PPM End=12.528391440425866
 Name=phosphorylethanolamine Abbr=PE Scale=1.0 Shift=0.0 PPM Start=-3.1207465171441986 PPM End=12.528391440425866
 Name=pyruvate Abbr=Pyr Scale=1.0 Shift=0.0 PPM Start=-3.1207465171441986 PPM End=12.528391440425866
 Name=taurine Abbr=Tau Scale=1.0 Shift=0.0 PPM Start=-3.1207465171441986 PPM End=12.528391440425866
 Name=glutathione-glutamate+glutathione-glycine-cysteine Abbr=GSH Scale=1.0 Shift=0.0 PPM Start=-3.1207565171441987 PPM End=12.528
   Mixture of [metab*scale] = glutathione-glutamate*1.000000 + glutathione-glycine-cysteine*1.000000
 
 ===========================================================================
 This LCModel format RAW file was created using the 
 Vespa-Simulation spectral simulation program using 
 the following settings and parameters 
 
 Sweep Width = 2000.0 Hz 
 Vector Size = 2048 points 
 Apodization = 18.0 Hz Lorentzian broadening
 B0 Field    = 127.74 MHz 
 Ref Singlet = False
  
 $NMID ID='PE'
 FMTDAT='(2E16.6)'
 VOLUME=1.0
 TRAMP=1.0
 $END
    3.627676E+00   -1.360233E-03
    3.152521E+00    1.488068E+00
    2.078255E+00    2.526184E+00
    7.322242E-01    2.902033E+00
   -5.131010E-01    2.612354E+00
   -1.358201E+00    1.844331E+00
   -1.661832E+00    8.987123E-01
   -1.467967E+00    8.295277E-02
   -9.700876E-01   -3.881811E-01
   -4.295277E-01   -4.522209E-01
   -7.878563E-02   -2.021770E-01
   -4.344142E-02    1.632895E-01
   -3.075724E-01    4.216738E-01
   -7.311434E-01    4.102017E-01
   -1.109650E+00    8.247094E-02
   -1.252669E+00   -4.793970E-01
   -1.053144E+00   -1.098410E+00
   -5.242557E-01   -1.567754E+00
    2.068225E-01   -1.723335E+00
    9.437638E-01   -1.498647E+00
    1.487094E+00   -9.445309E-01
    1.698273E+00   -2.092133E-01
    1.540541E+00    5.124336E-01
    1.084518E+00    1.041754E+00
    4.790471E-01    1.269869E+00
   -1.008133E-01    1.185067E+00
   -5.099592E-01    8.670058E-01
   -6.749333E-01    4.521970E-01
   -6.086687E-01    8.439680E-02
   -3.957072E-01   -1.325383E-01
   -1.553112E-01   -1.639832E-01
    3.337423E-03   -4.782384E-02
    1.818273E-02    1.270979E-01
   -1.082418E-01    2.580391E-01
   -3.152491E-01    2.670504E-01
   -5.102018E-01    1.280027E-01
   -6.040989E-01   -1.264183E-01
   -5.436259E-01   -4.186678E-01
   -3.290631E-01   -6.550203E-01
   -1.282069E-02   -7.583479E-01
    3.195229E-01   -6.935030E-01
    5.783579E-01   -4.773903E-01
    6.987448E-01   -1.713250E-01
    6.594372E-01    1.406417E-01
    4.864607E-01    3.791651E-01
    2.413272E-01    4.936033E-01
   -1.079588E-03    4.747899E-01
   -1.769645E-01    3.535265E-01
   -2.521485E-01    1.863805E-01
   -2.292065E-01    3.465861E-02
   -1.419333E-01   -5.599746E-02
   -4.010909E-02   -6.865013E-02
    2.942584E-02   -1.718882E-02
    3.872267E-02    6.219213E-02
   -1.336501E-02    1.262658E-01
   -1.032535E-01    1.410253E-01
   -1.931012E-01    9.331884E-02
   -2.453696E-01   -5.689473E-03
   -2.362193E-01   -1.257538E-01
   -1.632414E-01   -2.289723E-01
   -4.539193E-02   -2.830604E-01
    8.429788E-02   -2.718850E-01
    1.901735E-01   -1.998955E-01
    2.455148E-01   -8.948193E-02
    2.402802E-01    2.729796E-02
    1.828831E-01    1.194534E-01
    9.586563E-02    1.665376E-01
    7.487493E-03    1.638164E-01
   -5.768751E-02    1.219477E-01
   -8.601277E-02    6.173433E-02
   -7.766491E-02    6.181708E-03
   -4.470053E-02   -2.722746E-02
   -5.459445E-03   -3.156017E-02
    2.248087E-02   -1.135749E-02
    2.826497E-02    2.040547E-02
    1.077608E-02    4.787260E-02
   -2.200848E-02    5.824823E-02
   -5.672873E-02    4.607106E-02
   -7.982937E-02    1.454546E-02
   -8.234562E-02   -2.622791E-02
   -6.268791E-02   -6.322016E-02
   -2.667700E-02   -8.509761E-02
    1.490053E-02   -8.585588E-02
    5.017824E-02   -6.638196E-02
    7.009963E-02   -3.359147E-02
    7.100048E-02    2.302749E-03
    5.520397E-02    3.131695E-02
    2.961896E-02    4.676348E-02
    3.026506E-03    4.691388E-02
   -1.689206E-02    3.486255E-02
   -2.580350E-02    1.687091E-02
   -2.358689E-02   -9.280054E-05
   -1.371245E-02   -1.070393E-02
   -1.532919E-03   -1.275318E-02
    7.797343E-03   -7.383251E-03
    1.103613E-02    1.831109E-03
    7.670554E-03    1.048526E-02
   -3.068423E-04    1.499782E-02
   -9.446370E-03    1.374698E-02
   -1.624280E-02    7.375172E-03
   -1.835789E-02   -1.723134E-03
   -1.527945E-02   -1.044295E-02
   -8.266639E-03   -1.610814E-02
    2.975616E-04   -1.730783E-02
    7.834706E-03   -1.418541E-02
    1.242875E-02   -8.170317E-03
    1.333039E-02   -1.323391E-03
    1.099198E-02    4.413629E-03
    6.705327E-03    7.799298E-03
    2.032091E-03    8.533306E-03
   -1.739332E-03    7.139815E-03
   -3.925564E-03    4.602900E-03
   -4.500779E-03    1.934881E-03
   -3.910189E-03   -1.553297E-04
   -2.769249E-03   -1.396026E-03
   -1.589926E-03   -1.885243E-03
   -6.353458E-04   -1.901769E-03
    7.057596E-05   -1.704086E-03
    6.225072E-04   -1.410765E-03
    1.089074E-03   -1.000682E-03
    1.425824E-03   -4.072599E-04
    1.487853E-03    3.620477E-04
    1.127472E-03    1.155424E-03
    3.184940E-04    1.700718E-03
   -7.656010E-04    1.717325E-03
   -1.770260E-03    1.063521E-03
   -2.278452E-03   -1.543512E-04
   -1.985014E-03   -1.571287E-03
   -8.506094E-04   -2.670078E-03
    8.367104E-04   -2.971126E-03
    2.530738E-03   -2.232018E-03
    3.608751E-03   -5.735379E-04
    3.604238E-03    1.526202E-03
    2.398875E-03    3.378183E-03
    2.961576E-04    4.321519E-03
   -2.059436E-03    3.968357E-03
   -3.895305E-03    2.361463E-03
   -4.581628E-03   -1.876195E-05
   -3.861799E-03   -2.408002E-03
   -1.955312E-03   -4.017633E-03
    5.068860E-04   -4.312798E-03
    2.696202E-03   -3.204905E-03
    3.874178E-03   -1.088803E-03
    3.651988E-03    1.291095E-03
    2.128766E-03    3.099352E-03
   -1.421919E-04    3.702269E-03
   -2.345696E-03    2.888872E-03
   -3.689969E-03    9.453224E-04
   -3.682617E-03   -1.445701E-03
   -2.301024E-03   -3.443207E-03
    1.617106E-06   -4.339485E-03
    2.454812E-03   -3.803040E-03
    4.237854E-03   -1.988477E-03
    4.758051E-03    5.213073E-04
    3.848358E-03    2.918822E-03
    1.814697E-03    4.447803E-03
   -6.782373E-04    4.654850E-03
   -2.839499E-03    3.531395E-03
   -4.019733E-03    1.500680E-03
   -3.921756E-03   -7.405841E-04
   -2.683845E-03   -2.468039E-03
   -8.120830E-04   -3.172700E-03
    1.009012E-03   -2.722494E-03
    2.158448E-03   -1.387200E-03
    2.288007E-03    2.747641E-04
    1.428589E-03    1.623355E-03
   -3.829758E-05    2.162731E-03
   -1.529051E-03    1.707729E-03
   -2.468696E-03    4.360419E-04
   -2.491135E-03   -1.186091E-03
   -1.559279E-03   -2.574613E-03
    3.191100E-05   -3.231965E-03
    1.765534E-03   -2.914013E-03
    3.083465E-03   -1.704736E-03
