 Vespa-Simulation Mixed Metabolite Output
 This file was generated by Vespa-Simulation. You can learn about and download Vespa here:
https://github.com/vespa-mrs/vespa/tree/main/vespa

 
 Output Path/Filename = /home/stud/casperc/bhome/Project1(DeepFit)/DeepFit-data-generation/DeepFitData_TE_20_lw18_2048p
 Output Loop Values = (1,1,1)  ( Loop 1 = 10, Loop 2 = 10, Loop3 Inactive )
 Output Comment
 ---------------------------------------------------------------------------
 
 
 Experiment Information
 ---------------------------------------------------------------------------
 --- Experiment 18b0168e-f5f0-4bd4-8d52-da93aba06c60 ---
 Name: SyntheticDataSetDeepFitTE20
 Public: False
 Created: 2024-10-08T09:55:07
 Comment (abbr.): 
 PI: Casper Cappelen
 b0: 127.740000
 Peak Search PPM low/high: -15.000000 / 15.000000
 Blend tol. PPM/phase: 0.001500 / 50.000000
 Pulse seq.: 43be13ae-de9a-40a1-9a2d-c872d8bjs100 (PRESS Ideal)
 0 User static parameters: 
 22 Metabolites: 2-hydroxyglutarate, alanine, choline-trimethyl, creatine, ethanolamine, gaba, glucose-beta, glutamate, glutamine, glutathione-glutamate, glutathione-glycine-cysteine, glycine, GPC-pcholine2, lactate, myo-inositol, n-acetylaspartate, NAAG-truncated, phosphocreatine, phosphorylcholine-trimethyl, phosphorylethanolamine, pyruvate, taurine
 22 Simulations: (not shown)
 
 Metabolite Formatting Information
 ---------------------------------------------------------------------------
 Name=2-hydroxyglutarate Abbr=2HG Scale=1.0 Shift=0.0 PPM Start=-3.1207465171441986 PPM End=12.528391440425866
 Name=alanine Abbr=Ala Scale=1.0 Shift=0.0 PPM Start=-3.1207465171441986 PPM End=12.528391440425866
 Name=choline-trimethyl Abbr=Cho Scale=1.0 Shift=0.0 PPM Start=-3.1207465171441986 PPM End=12.528391440425866
 Name=creatine Abbr=Cr Scale=1.0 Shift=0.0 PPM Start=-3.1207465171441986 PPM End=12.528391440425866
 Name=ethanolamine Abbr=ETA Scale=1.0 Shift=0.0 PPM Start=-3.1207465171441986 PPM End=12.528391440425866
 Name=gaba Abbr=GABA Scale=1.0 Shift=0.0 PPM Start=-3.1207465171441986 PPM End=12.528391440425866
 Name=glucose-beta Abbr=Glc Scale=1.0 Shift=0.0 PPM Start=-3.1207465171441986 PPM End=12.528391440425866
 Name=glutamate Abbr=Glu Scale=1.0 Shift=0.0 PPM Start=-3.1207465171441986 PPM End=12.528391440425866
 Name=glutamine Abbr=Gln Scale=1.0 Shift=0.0 PPM Start=-3.1207465171441986 PPM End=12.528391440425866
 Name=glycine Abbr=Gly Scale=1.0 Shift=0.0 PPM Start=-3.1207465171441986 PPM End=12.528391440425866
 Name=GPC-pcholine2 Abbr=GPC Scale=1.0 Shift=0.0 PPM Start=-3.1207465171441986 PPM End=12.528391440425866
 Name=lactate Abbr=Lac Scale=1.0 Shift=0.0 PPM Start=-3.1207465171441986 PPM End=12.528391440425866
 Name=myo-inositol Abbr=mI Scale=1.0 Shift=0.0 PPM Start=-3.1207465171441986 PPM End=12.528391440425866
 Name=n-acetylaspartate Abbr=NAA Scale=1.0 Shift=0.0 PPM Start=-3.1207465171441986 PPM End=12.528391440425866
 Name=NAAG-truncated Abbr=NAAG Scale=1.0 Shift=0.0 PPM Start=-3.1207465171441986 PPM End=12.528391440425866
 Name=phosphocreatine Abbr=PCr Scale=1.0 Shift=0.0 PPM Start=-3.1207465171441986 PPM End=12.528391440425866
 Name=phosphorylcholine-trimethyl Abbr=PCho Scale=1.0 Shift=0.0 PPM Start=-3.1207465171441986 PPM End=12.528391440425866
 Name=phosphorylethanolamine Abbr=PE Scale=1.0 Shift=0.0 PPM Start=-3.1207465171441986 PPM End=12.528391440425866
 Name=pyruvate Abbr=Pyr Scale=1.0 Shift=0.0 PPM Start=-3.1207465171441986 PPM End=12.528391440425866
 Name=taurine Abbr=Tau Scale=1.0 Shift=0.0 PPM Start=-3.1207465171441986 PPM End=12.528391440425866
 Name=glutathione-glutamate+glutathione-glycine-cysteine Abbr=GSH Scale=1.0 Shift=0.0 PPM Start=-3.1207565171441987 PPM End=12.528
   Mixture of [metab*scale] = glutathione-glutamate*1.000000 + glutathione-glycine-cysteine*1.000000
 
 ===========================================================================
 This LCModel format RAW file was created using the 
 Vespa-Simulation spectral simulation program using 
 the following settings and parameters 
 
 Sweep Width = 2000.0 Hz 
 Vector Size = 2048 points 
 Apodization = 18.0 Hz Lorentzian broadening
 B0 Field    = 127.74 MHz 
 Ref Singlet = False
  
 This data has been FFTd to be in the FREQUENCY domain
 
 $NMID ID='PE'
 FMTDAT='(2E16.6)'
 VOLUME=1.0
 TRAMP=1.0
 $END
    2.608086E+00    9.131991E+00
    2.623611E+00    9.214068E+00
    2.639623E+00    9.297679E+00
    2.656142E+00    9.382871E+00
    2.673192E+00    9.469692E+00
    2.690794E+00    9.558190E+00
    2.708974E+00    9.648417E+00
    2.727758E+00    9.740427E+00
    2.747173E+00    9.834275E+00
    2.767248E+00    9.930019E+00
    2.788013E+00    1.002772E+01
    2.809502E+00    1.012744E+01
    2.831750E+00    1.022925E+01
    2.854792E+00    1.033322E+01
    2.878668E+00    1.043941E+01
    2.903419E+00    1.054791E+01
    2.929090E+00    1.065879E+01
    2.955727E+00    1.077213E+01
    2.983380E+00    1.088803E+01
    3.012103E+00    1.100656E+01
    3.041952E+00    1.112784E+01
    3.072987E+00    1.125195E+01
    3.105275E+00    1.137900E+01
    3.138884E+00    1.150910E+01
    3.173887E+00    1.164236E+01
    3.210366E+00    1.177891E+01
    3.248404E+00    1.191887E+01
    3.288093E+00    1.206238E+01
    3.329532E+00    1.220957E+01
    3.372827E+00    1.236059E+01
    3.418089E+00    1.251560E+01
    3.465443E+00    1.267476E+01
    3.515021E+00    1.283825E+01
    3.566965E+00    1.300624E+01
    3.621429E+00    1.317892E+01
    3.678581E+00    1.335651E+01
    3.738602E+00    1.353921E+01
    3.801689E+00    1.372725E+01
    3.868055E+00    1.392087E+01
    3.937933E+00    1.412031E+01
    4.011578E+00    1.432586E+01
    4.089266E+00    1.453779E+01
    4.171300E+00    1.475640E+01
    4.258012E+00    1.498201E+01
    4.349766E+00    1.521495E+01
    4.446961E+00    1.545558E+01
    4.550038E+00    1.570427E+01
    4.659482E+00    1.596143E+01
    4.775830E+00    1.622747E+01
    4.899675E+00    1.650284E+01
    5.031675E+00    1.678800E+01
    5.172562E+00    1.708345E+01
    5.323151E+00    1.738970E+01
    5.484349E+00    1.770729E+01
    5.657169E+00    1.803678E+01
    5.842741E+00    1.837875E+01
    6.042327E+00    1.873378E+01
    6.257335E+00    1.910247E+01
    6.489336E+00    1.948544E+01
    6.740084E+00    1.988329E+01
    7.011547E+00    2.029664E+01
    7.305941E+00    2.072609E+01
    7.625778E+00    2.117224E+01
    7.973917E+00    2.163561E+01
    8.353623E+00    2.211666E+01
    8.768612E+00    2.261567E+01
    9.223117E+00    2.313272E+01
    9.721945E+00    2.366759E+01
    1.027055E+01    2.421966E+01
    1.087512E+01    2.478774E+01
    1.154261E+01    2.536990E+01
    1.228087E+01    2.596322E+01
    1.309855E+01    2.656344E+01
    1.400513E+01    2.716454E+01
    1.501068E+01    2.775830E+01
    1.612557E+01    2.833371E+01
    1.735985E+01    2.887640E+01
    1.872235E+01    2.936808E+01
    2.021937E+01    2.978625E+01
    2.185300E+01    3.010434E+01
    2.361918E+01    3.029267E+01
    2.550610E+01    3.032045E+01
    2.749352E+01    3.015887E+01
    2.955394E+01    2.978447E+01
    3.165582E+01    2.918147E+01
    3.376782E+01    2.834143E+01
    3.586139E+01    2.725985E+01
    3.790965E+01    2.593182E+01
    3.988257E+01    2.435046E+01
    4.174222E+01    2.251039E+01
    4.344225E+01    2.041465E+01
    4.493305E+01    1.808031E+01
    4.616948E+01    1.553886E+01
    4.711627E+01    1.283149E+01
    4.774810E+01    1.000317E+01
    4.804603E+01    7.100443E+00
    4.799571E+01    4.174092E+00
    4.759088E+01    1.282404E+00
    4.684067E+01   -1.510723E+00
    4.577411E+01   -4.144522E+00
    4.443677E+01   -6.572152E+00
    4.288039E+01   -8.766482E+00
    4.115185E+01   -1.071724E+01
    3.928774E+01   -1.242204E+01
    3.731714E+01   -1.387759E+01
    3.526887E+01   -1.507682E+01
    3.317752E+01   -1.601259E+01
    3.108404E+01   -1.668436E+01
    2.903123E+01   -1.710284E+01
    2.705766E+01   -1.729031E+01
    2.519305E+01   -1.727736E+01
    2.345656E+01   -1.709835E+01
    2.185742E+01   -1.678729E+01
    2.039694E+01   -1.637510E+01
    1.907085E+01   -1.588824E+01
    1.787140E+01   -1.534839E+01
    1.678906E+01   -1.477271E+01
    1.581366E+01   -1.417445E+01
    1.493515E+01   -1.356368E+01
    1.414407E+01   -1.294790E+01
    1.343171E+01   -1.233273E+01
    1.279013E+01   -1.172232E+01
    1.221216E+01   -1.111967E+01
    1.169127E+01   -1.052689E+01
    1.122162E+01   -9.945293E+00
    1.079806E+01   -9.375592E+00
    1.041609E+01   -8.818045E+00
    1.007189E+01   -8.272653E+00
    9.762122E+00   -7.739312E+00
    9.483849E+00   -7.217883E+00
    9.234368E+00   -6.708192E+00
    9.011150E+00   -6.209964E+00
    8.811838E+00   -5.722773E+00
    8.634285E+00   -5.246020E+00
    8.476592E+00   -4.778959E+00
    8.337126E+00   -4.320742E+00
    8.214515E+00   -3.870470E+00
    8.107616E+00   -3.427236E+00
    8.015492E+00   -2.990144E+00
    7.937377E+00   -2.558329E+00
    7.872651E+00   -2.130954E+00
    7.820818E+00   -1.707212E+00
    7.781493E+00   -1.286324E+00
    7.754389E+00   -8.675293E-01
    7.739309E+00   -4.500839E-01
    7.736141E+00   -3.325428E-02
    7.744858E+00    3.836884E-01
    7.765512E+00    8.014725E-01
    7.798237E+00    1.220831E+00
    7.843252E+00    1.642508E+00
    7.900864E+00    2.067261E+00
    7.971474E+00    2.495871E+00
    8.055587E+00    2.929146E+00
    8.153826E+00    3.367928E+00
    8.266946E+00    3.813100E+00
    8.395863E+00    4.265592E+00
    8.541682E+00    4.726379E+00
    8.705744E+00    5.196481E+00
    8.889672E+00    5.676934E+00
    9.095428E+00    6.168753E+00
    9.325359E+00    6.672860E+00
    9.582216E+00    7.189984E+00
    9.869122E+00    7.720547E+00
    1.018948E+01    8.264590E+00
    1.054684E+01    8.821764E+00
    1.094480E+01    9.391433E+00
    1.138707E+01    9.972837E+00
    1.187755E+01    1.056523E+01
    1.242068E+01    1.116789E+01
    1.302165E+01    1.177998E+01
    1.368670E+01    1.240030E+01
    1.442315E+01    1.302693E+01
    1.523957E+01    1.365685E+01
