 Vespa-Simulation Mixed Metabolite Output
 This file was generated by Vespa-Simulation. You can learn about and download Vespa here:
https://github.com/vespa-mrs/vespa/tree/main/vespa

 
 Output Path/Filename = /home/stud/casperc/bhome/Project1(DeepFit)/DeepFit-data-generation/DeepFitData_TE_20_lw18_2048p
 Output Loop Values = (1,1,1)  ( Loop 1 = 10, Loop 2 = 10, Loop3 Inactive )
 Output Comment
 ---------------------------------------------------------------------------
 
 
 Experiment Information
 ---------------------------------------------------------------------------
 --- Experiment 18b0168e-f5f0-4bd4-8d52-da93aba06c60 ---
 Name: SyntheticDataSetDeepFitTE20
 Public: False
 Created: 2024-10-08T09:55:07
 Comment (abbr.): 
 PI: Casper Cappelen
 b0: 127.740000
 Peak Search PPM low/high: -15.000000 / 15.000000
 Blend tol. PPM/phase: 0.001500 / 50.000000
 Pulse seq.: 43be13ae-de9a-40a1-9a2d-c872d8bjs100 (PRESS Ideal)
 0 User static parameters: 
 22 Metabolites: 2-hydroxyglutarate, alanine, choline-trimethyl, creatine, ethanolamine, gaba, glucose-beta, glutamate, glutamine, glutathione-glutamate, glutathione-glycine-cysteine, glycine, GPC-pcholine2, lactate, myo-inositol, n-acetylaspartate, NAAG-truncated, phosphocreatine, phosphorylcholine-trimethyl, phosphorylethanolamine, pyruvate, taurine
 22 Simulations: (not shown)
 
 Metabolite Formatting Information
 ---------------------------------------------------------------------------
 Name=2-hydroxyglutarate Abbr=2HG Scale=1.0 Shift=0.0 PPM Start=-3.1207465171441986 PPM End=12.528391440425866
 Name=alanine Abbr=Ala Scale=1.0 Shift=0.0 PPM Start=-3.1207465171441986 PPM End=12.528391440425866
 Name=choline-trimethyl Abbr=Cho Scale=1.0 Shift=0.0 PPM Start=-3.1207465171441986 PPM End=12.528391440425866
 Name=creatine Abbr=Cr Scale=1.0 Shift=0.0 PPM Start=-3.1207465171441986 PPM End=12.528391440425866
 Name=ethanolamine Abbr=ETA Scale=1.0 Shift=0.0 PPM Start=-3.1207465171441986 PPM End=12.528391440425866
 Name=gaba Abbr=GABA Scale=1.0 Shift=0.0 PPM Start=-3.1207465171441986 PPM End=12.528391440425866
 Name=glucose-beta Abbr=Glc Scale=1.0 Shift=0.0 PPM Start=-3.1207465171441986 PPM End=12.528391440425866
 Name=glutamate Abbr=Glu Scale=1.0 Shift=0.0 PPM Start=-3.1207465171441986 PPM End=12.528391440425866
 Name=glutamine Abbr=Gln Scale=1.0 Shift=0.0 PPM Start=-3.1207465171441986 PPM End=12.528391440425866
 Name=glycine Abbr=Gly Scale=1.0 Shift=0.0 PPM Start=-3.1207465171441986 PPM End=12.528391440425866
 Name=GPC-pcholine2 Abbr=GPC Scale=1.0 Shift=0.0 PPM Start=-3.1207465171441986 PPM End=12.528391440425866
 Name=lactate Abbr=Lac Scale=1.0 Shift=0.0 PPM Start=-3.1207465171441986 PPM End=12.528391440425866
 Name=myo-inositol Abbr=mI Scale=1.0 Shift=0.0 PPM Start=-3.1207465171441986 PPM End=12.528391440425866
 Name=n-acetylaspartate Abbr=NAA Scale=1.0 Shift=0.0 PPM Start=-3.1207465171441986 PPM End=12.528391440425866
 Name=NAAG-truncated Abbr=NAAG Scale=1.0 Shift=0.0 PPM Start=-3.1207465171441986 PPM End=12.528391440425866
 Name=phosphocreatine Abbr=PCr Scale=1.0 Shift=0.0 PPM Start=-3.1207465171441986 PPM End=12.528391440425866
 Name=phosphorylcholine-trimethyl Abbr=PCho Scale=1.0 Shift=0.0 PPM Start=-3.1207465171441986 PPM End=12.528391440425866
 Name=phosphorylethanolamine Abbr=PE Scale=1.0 Shift=0.0 PPM Start=-3.1207465171441986 PPM End=12.528391440425866
 Name=pyruvate Abbr=Pyr Scale=1.0 Shift=0.0 PPM Start=-3.1207465171441986 PPM End=12.528391440425866
 Name=taurine Abbr=Tau Scale=1.0 Shift=0.0 PPM Start=-3.1207465171441986 PPM End=12.528391440425866
 Name=glutathione-glutamate+glutathione-glycine-cysteine Abbr=GSH Scale=1.0 Shift=0.0 PPM Start=-3.1207565171441987 PPM End=12.528
   Mixture of [metab*scale] = glutathione-glutamate*1.000000 + glutathione-glycine-cysteine*1.000000
 
 ===========================================================================
 This LCModel format RAW file was created using the 
 Vespa-Simulation spectral simulation program using 
 the following settings and parameters 
 
 Sweep Width = 2000.0 Hz 
 Vector Size = 2048 points 
 Apodization = 18.0 Hz Lorentzian broadening
 B0 Field    = 127.74 MHz 
 Ref Singlet = False
  
 $NMID ID='Pyr'
 FMTDAT='(2E16.6)'
 VOLUME=1.0
 TRAMP=1.0
 $END
    3.000000E+00   -5.204170E-18
    1.721309E+00    2.354205E+00
   -8.597925E-01    2.701542E+00
   -2.613317E+00    8.753548E-01
   -2.186362E+00   -1.548510E+00
   -3.930163E-02   -2.604203E+00
    2.021060E+00   -1.525053E+00
    2.356385E+00    7.109686E-01
    7.940988E-01    2.257070E+00
   -1.315566E+00    1.918199E+00
   -2.260110E+00    6.823295E-02
   -1.350326E+00   -1.734438E+00
    5.862990E-01   -2.054816E+00
    1.948887E+00   -7.189003E-01
    1.682358E+00    1.116877E+00
    8.883949E-02    1.961035E+00
   -1.487924E+00    1.194891E+00
   -1.791398E+00   -4.820348E-01
   -6.495921E-01   -1.682345E+00
    9.474796E-01   -1.475036E+00
    1.701147E+00   -1.028093E-01
    1.056744E+00    1.275961E+00
   -3.949647E-01    1.561371E+00
   -1.451882E+00    5.859240E-01
   -1.292840E+00   -8.031576E-01
   -1.115258E-01   -1.475364E+00
    1.093780E+00   -9.340368E-01
    1.360549E+00    3.224064E-01
    5.276374E-01    1.252658E+00
   -6.802540E-01    1.132797E+00
   -1.279255E+00    1.161449E-01
   -8.251399E-01   -9.372359E-01
    2.620512E-01   -1.185271E+00
    1.080478E+00   -4.744396E-01
    9.922498E-01    5.756775E-01
    1.175763E-01    1.108959E+00
   -8.027717E-01    7.285586E-01
   -1.032330E+00   -2.119466E-01
   -4.260041E-01   -9.317107E-01
    4.867248E-01   -8.688837E-01
    9.611104E-01   -1.165958E-01
    6.429472E-01    6.873230E-01
   -1.704565E-01    8.989094E-01
   -8.032115E-01    3.819972E-01
   -7.606278E-01   -4.111244E-01
   -1.137946E-01   -8.327827E-01
    5.882179E-01   -5.671283E-01
    7.825479E-01    1.361886E-01
    3.421245E-01    6.922363E-01
   -3.469167E-01    6.656638E-01
   -7.214207E-01    1.096941E-01
   -5.000136E-01   -5.031813E-01
    1.079769E-01   -6.810874E-01
    5.964248E-01   -3.060582E-01
    5.823826E-01    2.924332E-01
    1.046753E-01    6.248046E-01
   -4.302501E-01    4.406327E-01
   -5.926449E-01   -8.480640E-02
   -2.734947E-01   -5.137266E-01
    2.462204E-01   -5.093796E-01
    5.410010E-01   -9.905258E-02
    3.881369E-01    3.677121E-01
   -6.585177E-02    5.155672E-01
   -4.423693E-01    2.441370E-01
   -4.453992E-01   -2.070679E-01
   -9.307355E-02   -4.683276E-01
    3.141130E-01   -3.417476E-01
    4.484093E-01    5.041470E-02
    2.177184E-01    3.808107E-01
   -1.739066E-01    3.893527E-01
   -4.053217E-01    8.692486E-02
   -3.007720E-01   -2.681977E-01
    3.788156E-02   -3.899109E-01
    3.277136E-01   -1.939894E-01
    3.402611E-01    1.458658E-01
    8.076259E-02    3.507088E-01
   -2.288685E-01    2.646084E-01
   -3.389650E-01   -2.777958E-02
   -1.726859E-01   -2.819381E-01
    1.221672E-01   -2.972792E-01
    3.033796E-01   -7.470765E-02
    2.326941E-01    1.952095E-01
   -1.967729E-02    2.946082E-01
   -2.424763E-01    1.536012E-01
   -2.596609E-01   -1.021500E-01
   -6.882274E-02   -2.623761E-01
    1.664090E-01   -2.045497E-01
    2.559980E-01    1.321683E-02
    1.365105E-01    2.084751E-01
   -8.527397E-02    2.267405E-01
   -2.268593E-01    6.317748E-02
   -1.797457E-01   -1.417711E-01
    8.121924E-03   -2.223966E-01
    1.791835E-01   -1.212294E-01
    1.979446E-01    7.104941E-02
    5.781805E-02    1.961005E-01
   -1.207139E-01    1.578873E-01
   -1.931617E-01   -4.139066E-03
   -1.075857E-01   -1.539532E-01
    5.908448E-02   -1.727594E-01
    1.694717E-01   -5.275707E-02
    1.386371E-01    1.027210E-01
   -1.059279E-03    1.677317E-01
   -1.322335E-01    9.540700E-02
   -1.507403E-01   -4.902780E-02
   -4.801966E-02   -1.464208E-01
    8.735031E-02   -1.216938E-01
    1.456164E-01   -1.276189E-03
    8.455077E-02    1.135387E-01
   -4.058218E-02    1.314959E-01
   -1.264746E-01    4.360106E-02
   -1.067820E-01   -7.423294E-02
   -3.014031E-03   -1.263882E-01
    9.745019E-02   -7.488508E-02
    1.146786E-01    3.350672E-02
    3.950432E-02    1.092178E-01
   -6.303855E-02    9.366768E-02
   -1.096739E-01    4.274221E-03
   -6.628102E-02   -8.361309E-02
    2.758489E-02   -9.998746E-02
    9.429023E-02   -3.572504E-02
    8.213512E-02    5.349557E-02
    5.146016E-03    9.514845E-02
   -7.171417E-02    5.863097E-02
   -8.715768E-02   -2.263401E-02
   -3.224607E-02   -8.138265E-02
    4.536258E-02   -7.199915E-02
    8.252794E-02   -5.712645E-03
    5.183444E-02    6.148525E-02
   -1.850460E-02    7.595566E-02
   -7.022268E-02    2.905927E-02
   -6.309514E-02   -3.843336E-02
   -6.041485E-03   -7.156491E-02
    5.269344E-02   -4.580231E-02
    6.617642E-02    1.507095E-02
    2.614283E-02    6.057842E-02
   -3.253849E-02    5.527298E-02
   -6.204394E-02    6.183138E-03
   -4.045067E-02   -4.514067E-02
    1.221456E-02   -5.764330E-02
    5.224325E-02   -2.348836E-02
    4.840749E-02    2.752059E-02
    6.177942E-03    5.377758E-02
   -3.865671E-02    3.570366E-02
   -5.019849E-02   -9.846954E-03
   -2.107476E-02   -4.504258E-02
    2.325477E-02   -4.238196E-02
    4.660153E-02   -6.068273E-03
    3.150026E-02    3.308832E-02
   -7.892022E-03    4.370436E-02
   -3.882468E-02    1.888277E-02
   -3.709543E-02   -1.963078E-02
   -5.878946E-03   -4.037369E-02
    2.830970E-02   -2.777837E-02
    3.804185E-02    6.277536E-03
    1.690079E-02    3.345477E-02
   -1.655623E-02    3.245783E-02
   -3.497029E-02    5.630775E-03
   -2.448337E-02   -2.421185E-02
    4.950330E-03   -3.310525E-02
    2.881931E-02   -1.510985E-02
    2.839275E-02    1.394618E-02
    5.346602E-03    3.028273E-02
   -2.069637E-02    2.157080E-02
   -2.880227E-02   -3.864727E-03
   -1.349288E-02   -2.481973E-02
    1.173380E-02   -2.482977E-02
    2.621732E-02   -5.038431E-03
    1.899639E-02    1.768290E-02
   -2.977045E-03    2.505302E-02
   -2.136821E-02    1.203829E-02
   -2.170722E-02   -9.861350E-03
   -4.716212E-03   -2.269260E-02
    1.510078E-02   -1.672210E-02
