 Vespa-Simulation Mixed Metabolite Output
 This file was generated by Vespa-Simulation. You can learn about and download Vespa here:
https://github.com/vespa-mrs/vespa/tree/main/vespa

 
 Output Path/Filename = /home/stud/casperc/bhome/Project1(DeepFit)/DeepFit-data-generation/DeepFitData_TE_20_lw18_2048p
 Output Loop Values = (1,1,1)  ( Loop 1 = 10, Loop 2 = 10, Loop3 Inactive )
 Output Comment
 ---------------------------------------------------------------------------
 
 
 Experiment Information
 ---------------------------------------------------------------------------
 --- Experiment 18b0168e-f5f0-4bd4-8d52-da93aba06c60 ---
 Name: SyntheticDataSetDeepFitTE20
 Public: False
 Created: 2024-10-08T09:55:07
 Comment (abbr.): 
 PI: Casper Cappelen
 b0: 127.740000
 Peak Search PPM low/high: -15.000000 / 15.000000
 Blend tol. PPM/phase: 0.001500 / 50.000000
 Pulse seq.: 43be13ae-de9a-40a1-9a2d-c872d8bjs100 (PRESS Ideal)
 0 User static parameters: 
 22 Metabolites: 2-hydroxyglutarate, alanine, choline-trimethyl, creatine, ethanolamine, gaba, glucose-beta, glutamate, glutamine, glutathione-glutamate, glutathione-glycine-cysteine, glycine, GPC-pcholine2, lactate, myo-inositol, n-acetylaspartate, NAAG-truncated, phosphocreatine, phosphorylcholine-trimethyl, phosphorylethanolamine, pyruvate, taurine
 22 Simulations: (not shown)
 
 Metabolite Formatting Information
 ---------------------------------------------------------------------------
 Name=2-hydroxyglutarate Abbr=2HG Scale=1.0 Shift=0.0 PPM Start=-3.1207465171441986 PPM End=12.528391440425866
 Name=alanine Abbr=Ala Scale=1.0 Shift=0.0 PPM Start=-3.1207465171441986 PPM End=12.528391440425866
 Name=choline-trimethyl Abbr=Cho Scale=1.0 Shift=0.0 PPM Start=-3.1207465171441986 PPM End=12.528391440425866
 Name=creatine Abbr=Cr Scale=1.0 Shift=0.0 PPM Start=-3.1207465171441986 PPM End=12.528391440425866
 Name=ethanolamine Abbr=ETA Scale=1.0 Shift=0.0 PPM Start=-3.1207465171441986 PPM End=12.528391440425866
 Name=gaba Abbr=GABA Scale=1.0 Shift=0.0 PPM Start=-3.1207465171441986 PPM End=12.528391440425866
 Name=glucose-beta Abbr=Glc Scale=1.0 Shift=0.0 PPM Start=-3.1207465171441986 PPM End=12.528391440425866
 Name=glutamate Abbr=Glu Scale=1.0 Shift=0.0 PPM Start=-3.1207465171441986 PPM End=12.528391440425866
 Name=glutamine Abbr=Gln Scale=1.0 Shift=0.0 PPM Start=-3.1207465171441986 PPM End=12.528391440425866
 Name=glycine Abbr=Gly Scale=1.0 Shift=0.0 PPM Start=-3.1207465171441986 PPM End=12.528391440425866
 Name=GPC-pcholine2 Abbr=GPC Scale=1.0 Shift=0.0 PPM Start=-3.1207465171441986 PPM End=12.528391440425866
 Name=lactate Abbr=Lac Scale=1.0 Shift=0.0 PPM Start=-3.1207465171441986 PPM End=12.528391440425866
 Name=myo-inositol Abbr=mI Scale=1.0 Shift=0.0 PPM Start=-3.1207465171441986 PPM End=12.528391440425866
 Name=n-acetylaspartate Abbr=NAA Scale=1.0 Shift=0.0 PPM Start=-3.1207465171441986 PPM End=12.528391440425866
 Name=NAAG-truncated Abbr=NAAG Scale=1.0 Shift=0.0 PPM Start=-3.1207465171441986 PPM End=12.528391440425866
 Name=phosphocreatine Abbr=PCr Scale=1.0 Shift=0.0 PPM Start=-3.1207465171441986 PPM End=12.528391440425866
 Name=phosphorylcholine-trimethyl Abbr=PCho Scale=1.0 Shift=0.0 PPM Start=-3.1207465171441986 PPM End=12.528391440425866
 Name=phosphorylethanolamine Abbr=PE Scale=1.0 Shift=0.0 PPM Start=-3.1207465171441986 PPM End=12.528391440425866
 Name=pyruvate Abbr=Pyr Scale=1.0 Shift=0.0 PPM Start=-3.1207465171441986 PPM End=12.528391440425866
 Name=taurine Abbr=Tau Scale=1.0 Shift=0.0 PPM Start=-3.1207465171441986 PPM End=12.528391440425866
 Name=glutathione-glutamate+glutathione-glycine-cysteine Abbr=GSH Scale=1.0 Shift=0.0 PPM Start=-3.1207565171441987 PPM End=12.528
   Mixture of [metab*scale] = glutathione-glutamate*1.000000 + glutathione-glycine-cysteine*1.000000
 
 ===========================================================================
 This LCModel format RAW file was created using the 
 Vespa-Simulation spectral simulation program using 
 the following settings and parameters 
 
 Sweep Width = 2000.0 Hz 
 Vector Size = 2048 points 
 Apodization = 18.0 Hz Lorentzian broadening
 B0 Field    = 127.74 MHz 
 Ref Singlet = False
  
 This data has been FFTd to be in the FREQUENCY domain
 
 $NMID ID='Pyr'
 FMTDAT='(2E16.6)'
 VOLUME=1.0
 TRAMP=1.0
 $END
    1.603394E+00    2.952072E+00
    1.604025E+00    2.963313E+00
    1.604664E+00    2.974620E+00
    1.605310E+00    2.985995E+00
    1.605963E+00    2.997436E+00
    1.606622E+00    3.008946E+00
    1.607285E+00    3.020526E+00
    1.607954E+00    3.032176E+00
    1.608627E+00    3.043898E+00
    1.609306E+00    3.055694E+00
    1.609990E+00    3.067565E+00
    1.610680E+00    3.079512E+00
    1.611377E+00    3.091536E+00
    1.612082E+00    3.103638E+00
    1.612795E+00    3.115819E+00
    1.613518E+00    3.128079E+00
    1.614251E+00    3.140417E+00
    1.614995E+00    3.152833E+00
    1.615749E+00    3.165327E+00
    1.616512E+00    3.177896E+00
    1.617281E+00    3.190542E+00
    1.618053E+00    3.203267E+00
    1.618827E+00    3.216075E+00
    1.619603E+00    3.228969E+00
    1.620383E+00    3.241953E+00
    1.621169E+00    3.255030E+00
    1.621966E+00    3.268201E+00
    1.622775E+00    3.281465E+00
    1.623599E+00    3.294820E+00
    1.624438E+00    3.308266E+00
    1.625291E+00    3.321800E+00
    1.626158E+00    3.335420E+00
    1.627034E+00    3.349128E+00
    1.627917E+00    3.362925E+00
    1.628805E+00    3.376813E+00
    1.629697E+00    3.390797E+00
    1.630595E+00    3.404881E+00
    1.631501E+00    3.419067E+00
    1.632416E+00    3.433357E+00
    1.633344E+00    3.447751E+00
    1.634285E+00    3.462248E+00
    1.635240E+00    3.476850E+00
    1.636209E+00    3.491554E+00
    1.637191E+00    3.506362E+00
    1.638185E+00    3.521275E+00
    1.639192E+00    3.536294E+00
    1.640211E+00    3.551419E+00
    1.641241E+00    3.566653E+00
    1.642282E+00    3.581996E+00
    1.643334E+00    3.597450E+00
    1.644395E+00    3.613017E+00
    1.645468E+00    3.628700E+00
    1.646551E+00    3.644501E+00
    1.647646E+00    3.660421E+00
    1.648754E+00    3.676463E+00
    1.649876E+00    3.692628E+00
    1.651014E+00    3.708915E+00
    1.652166E+00    3.725327E+00
    1.653334E+00    3.741864E+00
    1.654517E+00    3.758527E+00
    1.655716E+00    3.775317E+00
    1.656929E+00    3.792237E+00
    1.658158E+00    3.809287E+00
    1.659403E+00    3.826468E+00
    1.660663E+00    3.843784E+00
    1.661938E+00    3.861234E+00
    1.663228E+00    3.878822E+00
    1.664533E+00    3.896549E+00
    1.665854E+00    3.914418E+00
    1.667191E+00    3.932431E+00
    1.668545E+00    3.950590E+00
    1.669917E+00    3.968897E+00
    1.671307E+00    3.987352E+00
    1.672716E+00    4.005957E+00
    1.674143E+00    4.024715E+00
    1.675590E+00    4.043626E+00
    1.677055E+00    4.062693E+00
    1.678540E+00    4.081918E+00
    1.680044E+00    4.101302E+00
    1.681568E+00    4.120848E+00
    1.683111E+00    4.140558E+00
    1.684673E+00    4.160434E+00
    1.686255E+00    4.180479E+00
    1.687857E+00    4.200696E+00
    1.689479E+00    4.221087E+00
    1.691122E+00    4.241655E+00
    1.692786E+00    4.262403E+00
    1.694473E+00    4.283332E+00
    1.696183E+00    4.304447E+00
    1.697917E+00    4.325748E+00
    1.699675E+00    4.347239E+00
    1.701458E+00    4.368921E+00
    1.703266E+00    4.390798E+00
    1.705100E+00    4.412871E+00
    1.706961E+00    4.435145E+00
    1.708849E+00    4.457620E+00
    1.710764E+00    4.480300E+00
    1.712706E+00    4.503188E+00
    1.714676E+00    4.526287E+00
    1.716675E+00    4.549600E+00
    1.718702E+00    4.573130E+00
    1.720758E+00    4.596881E+00
    1.722845E+00    4.620855E+00
    1.724963E+00    4.645057E+00
    1.727112E+00    4.669490E+00
    1.729294E+00    4.694156E+00
    1.731508E+00    4.719060E+00
    1.733757E+00    4.744205E+00
    1.736040E+00    4.769594E+00
    1.738358E+00    4.795231E+00
    1.740713E+00    4.821119E+00
    1.743104E+00    4.847263E+00
    1.745532E+00    4.873666E+00
    1.747998E+00    4.900332E+00
    1.750502E+00    4.927265E+00
    1.753046E+00    4.954471E+00
    1.755630E+00    4.981953E+00
    1.758256E+00    5.009715E+00
    1.760924E+00    5.037764E+00
    1.763637E+00    5.066101E+00
    1.766396E+00    5.094732E+00
    1.769202E+00    5.123661E+00
    1.772055E+00    5.152890E+00
    1.774956E+00    5.182425E+00
    1.777905E+00    5.212270E+00
    1.780902E+00    5.242431E+00
    1.783946E+00    5.272912E+00
    1.787039E+00    5.303720E+00
    1.790181E+00    5.334861E+00
    1.793373E+00    5.366343E+00
    1.796617E+00    5.398171E+00
    1.799914E+00    5.430352E+00
    1.803268E+00    5.462893E+00
    1.806678E+00    5.495799E+00
    1.810147E+00    5.529077E+00
    1.813678E+00    5.562733E+00
    1.817271E+00    5.596774E+00
    1.820930E+00    5.631205E+00
    1.824655E+00    5.666034E+00
    1.828449E+00    5.701267E+00
    1.832313E+00    5.736910E+00
    1.836247E+00    5.772971E+00
    1.840255E+00    5.809457E+00
    1.844336E+00    5.846376E+00
    1.848493E+00    5.883735E+00
    1.852728E+00    5.921543E+00
    1.857042E+00    5.959809E+00
    1.861437E+00    5.998540E+00
    1.865915E+00    6.037745E+00
    1.870479E+00    6.077435E+00
    1.875130E+00    6.117617E+00
    1.879871E+00    6.158302E+00
    1.884704E+00    6.199498E+00
    1.889632E+00    6.241217E+00
    1.894658E+00    6.283467E+00
    1.899784E+00    6.326259E+00
    1.905013E+00    6.369603E+00
    1.910346E+00    6.413511E+00
    1.915787E+00    6.457993E+00
    1.921339E+00    6.503060E+00
    1.927003E+00    6.548726E+00
    1.932783E+00    6.595003E+00
    1.938683E+00    6.641902E+00
    1.944706E+00    6.689438E+00
    1.950854E+00    6.737623E+00
    1.957133E+00    6.786471E+00
    1.963544E+00    6.835996E+00
    1.970094E+00    6.886214E+00
    1.976785E+00    6.937138E+00
    1.983623E+00    6.988784E+00
    1.990612E+00    7.041166E+00
    1.997756E+00    7.094302E+00
