 Vespa-Simulation Mixed Metabolite Output
 This file was generated by Vespa-Simulation. You can learn about and download Vespa here:
https://github.com/vespa-mrs/vespa/tree/main/vespa

 
 Output Path/Filename = /home/stud/casperc/bhome/Project1(DeepFit)/DeepFit-data-generation/DeepFitData_TE_20_lw18_2048p
 Output Loop Values = (1,1,1)  ( Loop 1 = 10, Loop 2 = 10, Loop3 Inactive )
 Output Comment
 ---------------------------------------------------------------------------
 
 
 Experiment Information
 ---------------------------------------------------------------------------
 --- Experiment 18b0168e-f5f0-4bd4-8d52-da93aba06c60 ---
 Name: SyntheticDataSetDeepFitTE20
 Public: False
 Created: 2024-10-08T09:55:07
 Comment (abbr.): 
 PI: Casper Cappelen
 b0: 127.740000
 Peak Search PPM low/high: -15.000000 / 15.000000
 Blend tol. PPM/phase: 0.001500 / 50.000000
 Pulse seq.: 43be13ae-de9a-40a1-9a2d-c872d8bjs100 (PRESS Ideal)
 0 User static parameters: 
 22 Metabolites: 2-hydroxyglutarate, alanine, choline-trimethyl, creatine, ethanolamine, gaba, glucose-beta, glutamate, glutamine, glutathione-glutamate, glutathione-glycine-cysteine, glycine, GPC-pcholine2, lactate, myo-inositol, n-acetylaspartate, NAAG-truncated, phosphocreatine, phosphorylcholine-trimethyl, phosphorylethanolamine, pyruvate, taurine
 22 Simulations: (not shown)
 
 Metabolite Formatting Information
 ---------------------------------------------------------------------------
 Name=2-hydroxyglutarate Abbr=2HG Scale=1.0 Shift=0.0 PPM Start=-3.1207465171441986 PPM End=12.528391440425866
 Name=alanine Abbr=Ala Scale=1.0 Shift=0.0 PPM Start=-3.1207465171441986 PPM End=12.528391440425866
 Name=choline-trimethyl Abbr=Cho Scale=1.0 Shift=0.0 PPM Start=-3.1207465171441986 PPM End=12.528391440425866
 Name=creatine Abbr=Cr Scale=1.0 Shift=0.0 PPM Start=-3.1207465171441986 PPM End=12.528391440425866
 Name=ethanolamine Abbr=ETA Scale=1.0 Shift=0.0 PPM Start=-3.1207465171441986 PPM End=12.528391440425866
 Name=gaba Abbr=GABA Scale=1.0 Shift=0.0 PPM Start=-3.1207465171441986 PPM End=12.528391440425866
 Name=glucose-beta Abbr=Glc Scale=1.0 Shift=0.0 PPM Start=-3.1207465171441986 PPM End=12.528391440425866
 Name=glutamate Abbr=Glu Scale=1.0 Shift=0.0 PPM Start=-3.1207465171441986 PPM End=12.528391440425866
 Name=glutamine Abbr=Gln Scale=1.0 Shift=0.0 PPM Start=-3.1207465171441986 PPM End=12.528391440425866
 Name=glycine Abbr=Gly Scale=1.0 Shift=0.0 PPM Start=-3.1207465171441986 PPM End=12.528391440425866
 Name=GPC-pcholine2 Abbr=GPC Scale=1.0 Shift=0.0 PPM Start=-3.1207465171441986 PPM End=12.528391440425866
 Name=lactate Abbr=Lac Scale=1.0 Shift=0.0 PPM Start=-3.1207465171441986 PPM End=12.528391440425866
 Name=myo-inositol Abbr=mI Scale=1.0 Shift=0.0 PPM Start=-3.1207465171441986 PPM End=12.528391440425866
 Name=n-acetylaspartate Abbr=NAA Scale=1.0 Shift=0.0 PPM Start=-3.1207465171441986 PPM End=12.528391440425866
 Name=NAAG-truncated Abbr=NAAG Scale=1.0 Shift=0.0 PPM Start=-3.1207465171441986 PPM End=12.528391440425866
 Name=phosphocreatine Abbr=PCr Scale=1.0 Shift=0.0 PPM Start=-3.1207465171441986 PPM End=12.528391440425866
 Name=phosphorylcholine-trimethyl Abbr=PCho Scale=1.0 Shift=0.0 PPM Start=-3.1207465171441986 PPM End=12.528391440425866
 Name=phosphorylethanolamine Abbr=PE Scale=1.0 Shift=0.0 PPM Start=-3.1207465171441986 PPM End=12.528391440425866
 Name=pyruvate Abbr=Pyr Scale=1.0 Shift=0.0 PPM Start=-3.1207465171441986 PPM End=12.528391440425866
 Name=taurine Abbr=Tau Scale=1.0 Shift=0.0 PPM Start=-3.1207465171441986 PPM End=12.528391440425866
 Name=glutathione-glutamate+glutathione-glycine-cysteine Abbr=GSH Scale=1.0 Shift=0.0 PPM Start=-3.1207565171441987 PPM End=12.528
   Mixture of [metab*scale] = glutathione-glutamate*1.000000 + glutathione-glycine-cysteine*1.000000
 
 ===========================================================================
 This LCModel format RAW file was created using the 
 Vespa-Simulation spectral simulation program using 
 the following settings and parameters 
 
 Sweep Width = 2000.0 Hz 
 Vector Size = 2048 points 
 Apodization = 18.0 Hz Lorentzian broadening
 B0 Field    = 127.74 MHz 
 Ref Singlet = False
  
 $NMID ID='Tau'
 FMTDAT='(2E16.6)'
 VOLUME=1.0
 TRAMP=1.0
 $END
    3.985336E+00    4.296512E-07
    3.308129E+00    2.021349E+00
    1.718582E+00    3.351468E+00
   -2.726038E-01    3.644326E+00
   -2.066748E+00    2.875773E+00
   -3.157965E+00    1.332043E+00
   -3.275937E+00   -4.928524E-01
   -2.450378E+00   -2.054783E+00
   -9.829321E-01   -2.922032E+00
    6.592885E-01   -2.894024E+00
    1.991743E+00   -2.043900E+00
    2.655175E+00   -6.775093E-01
    2.511222E+00    7.731062E-01
    1.665866E+00    1.885405E+00
    4.192378E-01    2.368795E+00
   -8.376397E-01    2.138578E+00
   -1.744422E+00    1.323344E+00
   -2.073662E+00    2.091174E-01
   -1.785275E+00   -8.579325E-01
   -1.020993E+00   -1.577799E+00
   -4.600516E-02   -1.779527E+00
    8.402053E-01   -1.458505E+00
    1.394445E+00   -7.611893E-01
    1.494828E+00    7.303291E-02
    1.163457E+00    7.913699E-01
    5.443382E-01    1.202724E+00
   -1.522262E-01    1.226496E+00
   -7.186113E-01    9.033837E-01
   -1.010178E+00    3.691316E-01
   -9.798759E-01   -1.967354E-01
   -6.797600E-01   -6.289947E-01
   -2.328959E-01   -8.232927E-01
    2.122812E-01   -7.587174E-01
    5.291710E-01   -4.924822E-01
    6.473696E-01   -1.319080E-01
    5.652697E-01    2.047217E-01
    3.401530E-01    4.251016E-01
    6.179242E-02    4.864539E-01
   -1.798317E-01    4.003993E-01
   -3.219244E-01    2.203212E-01
   -3.433644E-01    1.776446E-02
   -2.637809E-01   -1.430115E-01
   -1.297968E-01   -2.238250E-01
    5.051688E-03   -2.197558E-01
    9.909993E-02   -1.541122E-01
    1.340286E-01   -6.488137E-02
    1.162387E-01    1.138661E-02
    6.932032E-02    5.227572E-02
    2.164413E-02    5.479935E-02
   -5.661689E-03    3.252683E-02
   -5.968284E-03    6.791916E-03
    1.248540E-02   -3.884559E-03
    3.239544E-02    8.165851E-03
    3.642028E-02    3.715762E-02
    1.552335E-02    6.724397E-02
   -2.668719E-02    8.009985E-02
   -7.517888E-02    6.341138E-02
   -1.095687E-01    1.680756E-02
   -1.125444E-01   -4.708903E-02
   -7.726406E-02   -1.068580E-01
   -1.088632E-02   -1.400965E-01
    6.716430E-02   -1.319133E-01
    1.315682E-01   -8.091354E-02
    1.598733E-01   -4.599147E-04
    1.404787E-01    8.528342E-02
    7.705016E-02    1.491951E-01
   -1.224013E-02    1.702246E-01
   -1.003492E-01    1.404809E-01
   -1.600376E-01    6.804530E-02
   -1.726366E-01   -2.546334E-02
   -1.340308E-01   -1.117371E-01
   -5.592840E-02   -1.646959E-01
    3.790841E-02   -1.686511E-01
    1.192130E-01   -1.230421E-01
    1.639858E-01   -4.234592E-02
    1.597779E-01    4.868822E-02
    1.091836E-01    1.228558E-01
    2.858430E-02    1.588406E-01
   -5.725866E-02    1.474318E-01
   -1.229800E-01    9.385107E-02
   -1.502368E-01    1.558883E-02
   -1.328763E-01   -6.338582E-02
   -7.817394E-02   -1.200508E-01
   -3.998770E-03   -1.391304E-01
    6.706531E-02   -1.171970E-01
    1.146342E-01   -6.300376E-02
    1.264089E-01    5.812932E-03
    1.012853E-01    6.846635E-02
    4.894836E-02    1.073285E-01
   -1.367829E-02    1.128575E-01
   -6.787794E-02    8.583459E-02
   -9.872195E-02    3.639745E-02
   -9.913773E-02   -1.960849E-02
   -7.135730E-02   -6.564986E-02
   -2.555655E-02   -8.935805E-02
    2.373335E-02   -8.577856E-02
    6.216660E-02   -5.819036E-02
    7.971253E-02   -1.648069E-02
    7.317668E-02    2.626364E-02
    4.652581E-02    5.780410E-02
    9.119142E-03    7.017752E-02
   -2.745711E-02    6.160410E-02
   -5.290829E-02    3.643429E-02
   -6.105925E-02    3.334741E-03
   -5.122458E-02   -2.758196E-02
   -2.789167E-02   -4.777903E-02
    1.056881E-03   -5.257720E-02
    2.690516E-02   -4.210605E-02
    4.266178E-02   -2.080347E-02
    4.487123E-02    4.264700E-03
    3.424230E-02    2.566845E-02
    1.503311E-02    3.774221E-02
   -6.503276E-03    3.801167E-02
   -2.408002E-02    2.757100E-02
   -3.315191E-02    1.041473E-02
   -3.201236E-02   -7.973406E-03
   -2.199133E-02   -2.230918E-02
   -6.775067E-03   -2.897095E-02
    8.858636E-03   -2.684270E-02
    2.048588E-02   -1.737921E-02
    2.523627E-02   -3.945024E-03
    2.244111E-02    9.314531E-03
    1.360288E-02    1.870085E-02
    1.768207E-03    2.195046E-02
   -9.467475E-03    1.872668E-02
   -1.701320E-02    1.052981E-02
   -1.909069E-02    1.092137E-04
   -1.560910E-02   -9.415510E-03
   -8.036339E-03   -1.545418E-02
    1.146969E-03   -1.661767E-02
    9.228661E-03   -1.299810E-02
    1.403302E-02   -6.014214E-03
    1.448288E-02    2.094140E-03
    1.080677E-02    8.957312E-03
    4.368642E-03    1.274556E-02
   -2.802738E-03    1.263519E-02
   -8.631476E-03    8.959017E-03
   -1.157719E-02    3.025017E-03
   -1.102572E-02   -3.325273E-03
   -7.390291E-03   -8.268295E-03
   -1.922179E-03   -1.051002E-02
    3.701074E-03   -9.610477E-03
    7.877247E-03   -6.046937E-03
    9.525124E-03   -1.015440E-03
    8.353542E-03    3.955503E-03
    4.888982E-03    7.461055E-03
    2.718271E-04    8.606064E-03
   -4.107941E-03    7.226214E-03
   -7.021702E-03    3.885205E-03
   -7.740321E-03   -3.338910E-04
   -6.208212E-03   -4.171177E-03
   -3.014647E-03   -6.560224E-03
    8.185285E-04   -6.919879E-03
    4.155621E-03   -5.286101E-03
    6.080028E-03   -2.261298E-03
    6.141090E-03    1.196496E-03
    4.451148E-03    4.071789E-03
    1.614685E-03    5.586079E-03
   -1.478841E-03    5.404192E-03
   -3.929393E-03    3.699332E-03
   -5.085656E-03    1.066737E-03
   -4.712240E-03   -1.676107E-03
   -3.027933E-03   -3.740044E-03
   -6.094882E-04   -4.587926E-03
    1.799915E-03   -4.069572E-03
    3.515648E-03   -2.435667E-03
    4.102779E-03   -2.359402E-04
    3.481246E-03    1.861549E-03
    1.920808E-03    3.268890E-03
   -6.276265E-05    3.640295E-03
   -1.873920E-03    2.951221E-03
   -3.012860E-03    1.479871E-03
   -3.209647E-03   -2.958736E-04
   -2.482334E-03   -1.849600E-03
