 Vespa-Simulation Mixed Metabolite Output
 This file was generated by Vespa-Simulation. You can learn about and download Vespa here:
https://github.com/vespa-mrs/vespa/tree/main/vespa

 
 Output Path/Filename = /home/stud/casperc/bhome/Project1(DeepFit)/DeepFit-data-generation/DeepFitData_TE_20_lw18_2048p
 Output Loop Values = (1,1,1)  ( Loop 1 = 10, Loop 2 = 10, Loop3 Inactive )
 Output Comment
 ---------------------------------------------------------------------------
 
 
 Experiment Information
 ---------------------------------------------------------------------------
 --- Experiment 18b0168e-f5f0-4bd4-8d52-da93aba06c60 ---
 Name: SyntheticDataSetDeepFitTE20
 Public: False
 Created: 2024-10-08T09:55:07
 Comment (abbr.): 
 PI: Casper Cappelen
 b0: 127.740000
 Peak Search PPM low/high: -15.000000 / 15.000000
 Blend tol. PPM/phase: 0.001500 / 50.000000
 Pulse seq.: 43be13ae-de9a-40a1-9a2d-c872d8bjs100 (PRESS Ideal)
 0 User static parameters: 
 22 Metabolites: 2-hydroxyglutarate, alanine, choline-trimethyl, creatine, ethanolamine, gaba, glucose-beta, glutamate, glutamine, glutathione-glutamate, glutathione-glycine-cysteine, glycine, GPC-pcholine2, lactate, myo-inositol, n-acetylaspartate, NAAG-truncated, phosphocreatine, phosphorylcholine-trimethyl, phosphorylethanolamine, pyruvate, taurine
 22 Simulations: (not shown)
 
 Metabolite Formatting Information
 ---------------------------------------------------------------------------
 Name=2-hydroxyglutarate Abbr=2HG Scale=1.0 Shift=0.0 PPM Start=-3.1207465171441986 PPM End=12.528391440425866
 Name=alanine Abbr=Ala Scale=1.0 Shift=0.0 PPM Start=-3.1207465171441986 PPM End=12.528391440425866
 Name=choline-trimethyl Abbr=Cho Scale=1.0 Shift=0.0 PPM Start=-3.1207465171441986 PPM End=12.528391440425866
 Name=creatine Abbr=Cr Scale=1.0 Shift=0.0 PPM Start=-3.1207465171441986 PPM End=12.528391440425866
 Name=ethanolamine Abbr=ETA Scale=1.0 Shift=0.0 PPM Start=-3.1207465171441986 PPM End=12.528391440425866
 Name=gaba Abbr=GABA Scale=1.0 Shift=0.0 PPM Start=-3.1207465171441986 PPM End=12.528391440425866
 Name=glucose-beta Abbr=Glc Scale=1.0 Shift=0.0 PPM Start=-3.1207465171441986 PPM End=12.528391440425866
 Name=glutamate Abbr=Glu Scale=1.0 Shift=0.0 PPM Start=-3.1207465171441986 PPM End=12.528391440425866
 Name=glutamine Abbr=Gln Scale=1.0 Shift=0.0 PPM Start=-3.1207465171441986 PPM End=12.528391440425866
 Name=glycine Abbr=Gly Scale=1.0 Shift=0.0 PPM Start=-3.1207465171441986 PPM End=12.528391440425866
 Name=GPC-pcholine2 Abbr=GPC Scale=1.0 Shift=0.0 PPM Start=-3.1207465171441986 PPM End=12.528391440425866
 Name=lactate Abbr=Lac Scale=1.0 Shift=0.0 PPM Start=-3.1207465171441986 PPM End=12.528391440425866
 Name=myo-inositol Abbr=mI Scale=1.0 Shift=0.0 PPM Start=-3.1207465171441986 PPM End=12.528391440425866
 Name=n-acetylaspartate Abbr=NAA Scale=1.0 Shift=0.0 PPM Start=-3.1207465171441986 PPM End=12.528391440425866
 Name=NAAG-truncated Abbr=NAAG Scale=1.0 Shift=0.0 PPM Start=-3.1207465171441986 PPM End=12.528391440425866
 Name=phosphocreatine Abbr=PCr Scale=1.0 Shift=0.0 PPM Start=-3.1207465171441986 PPM End=12.528391440425866
 Name=phosphorylcholine-trimethyl Abbr=PCho Scale=1.0 Shift=0.0 PPM Start=-3.1207465171441986 PPM End=12.528391440425866
 Name=phosphorylethanolamine Abbr=PE Scale=1.0 Shift=0.0 PPM Start=-3.1207465171441986 PPM End=12.528391440425866
 Name=pyruvate Abbr=Pyr Scale=1.0 Shift=0.0 PPM Start=-3.1207465171441986 PPM End=12.528391440425866
 Name=taurine Abbr=Tau Scale=1.0 Shift=0.0 PPM Start=-3.1207465171441986 PPM End=12.528391440425866
 Name=glutathione-glutamate+glutathione-glycine-cysteine Abbr=GSH Scale=1.0 Shift=0.0 PPM Start=-3.1207565171441987 PPM End=12.528
   Mixture of [metab*scale] = glutathione-glutamate*1.000000 + glutathione-glycine-cysteine*1.000000
 
 ===========================================================================
 This LCModel format RAW file was created using the 
 Vespa-Simulation spectral simulation program using 
 the following settings and parameters 
 
 Sweep Width = 2000.0 Hz 
 Vector Size = 2048 points 
 Apodization = 18.0 Hz Lorentzian broadening
 B0 Field    = 127.74 MHz 
 Ref Singlet = False
  
 This data has been FFTd to be in the FREQUENCY domain
 
 $NMID ID='Tau'
 FMTDAT='(2E16.6)'
 VOLUME=1.0
 TRAMP=1.0
 $END
    2.362914E+00    7.096024E+00
    2.367031E+00    7.138152E+00
    2.371221E+00    7.180747E+00
    2.375483E+00    7.223817E+00
    2.379821E+00    7.267370E+00
    2.384235E+00    7.311414E+00
    2.388727E+00    7.355958E+00
    2.393300E+00    7.401011E+00
    2.397954E+00    7.446581E+00
    2.402692E+00    7.492678E+00
    2.407515E+00    7.539311E+00
    2.412425E+00    7.586491E+00
    2.417425E+00    7.634227E+00
    2.422517E+00    7.682530E+00
    2.427703E+00    7.731410E+00
    2.432986E+00    7.780878E+00
    2.438368E+00    7.830945E+00
    2.443851E+00    7.881622E+00
    2.449439E+00    7.932920E+00
    2.455135E+00    7.984851E+00
    2.460940E+00    8.037428E+00
    2.466858E+00    8.090662E+00
    2.472892E+00    8.144567E+00
    2.479045E+00    8.199155E+00
    2.485320E+00    8.254439E+00
    2.491720E+00    8.310433E+00
    2.498250E+00    8.367152E+00
    2.504911E+00    8.424610E+00
    2.511707E+00    8.482821E+00
    2.518644E+00    8.541801E+00
    2.525723E+00    8.601565E+00
    2.532951E+00    8.662130E+00
    2.540329E+00    8.723512E+00
    2.547863E+00    8.785727E+00
    2.555558E+00    8.848794E+00
    2.563417E+00    8.912730E+00
    2.571446E+00    8.977554E+00
    2.579649E+00    9.043284E+00
    2.588032E+00    9.109941E+00
    2.596599E+00    9.177544E+00
    2.605356E+00    9.246113E+00
    2.614310E+00    9.315670E+00
    2.623464E+00    9.386238E+00
    2.632827E+00    9.457838E+00
    2.642403E+00    9.530494E+00
    2.652201E+00    9.604230E+00
    2.662226E+00    9.679071E+00
    2.672486E+00    9.755042E+00
    2.682988E+00    9.832170E+00
    2.693740E+00    9.910480E+00
    2.704751E+00    9.990002E+00
    2.716028E+00    1.007076E+01
    2.727580E+00    1.015280E+01
    2.739417E+00    1.023613E+01
    2.751548E+00    1.032079E+01
    2.763983E+00    1.040682E+01
    2.776732E+00    1.049425E+01
    2.789805E+00    1.058311E+01
    2.803215E+00    1.067344E+01
    2.816972E+00    1.076528E+01
    2.831089E+00    1.085866E+01
    2.845579E+00    1.095362E+01
    2.860455E+00    1.105022E+01
    2.875731E+00    1.114848E+01
    2.891422E+00    1.124846E+01
    2.907543E+00    1.135019E+01
    2.924110E+00    1.145373E+01
    2.941139E+00    1.155913E+01
    2.958649E+00    1.166643E+01
    2.976657E+00    1.177570E+01
    2.995183E+00    1.188697E+01
    3.014247E+00    1.200032E+01
    3.033870E+00    1.211580E+01
    3.054075E+00    1.223347E+01
    3.074884E+00    1.235340E+01
    3.096323E+00    1.247564E+01
    3.118417E+00    1.260028E+01
    3.141193E+00    1.272738E+01
    3.164680E+00    1.285701E+01
    3.188909E+00    1.298926E+01
    3.213911E+00    1.312420E+01
    3.239719E+00    1.326192E+01
    3.266371E+00    1.340251E+01
    3.293902E+00    1.354605E+01
    3.322352E+00    1.369265E+01
    3.351763E+00    1.384240E+01
    3.382179E+00    1.399540E+01
    3.413647E+00    1.415177E+01
    3.446216E+00    1.431161E+01
    3.479940E+00    1.447505E+01
    3.514874E+00    1.464220E+01
    3.551077E+00    1.481320E+01
    3.588613E+00    1.498819E+01
    3.627547E+00    1.516730E+01
    3.667953E+00    1.535068E+01
    3.709905E+00    1.553850E+01
    3.753484E+00    1.573090E+01
    3.798776E+00    1.592807E+01
    3.845875E+00    1.613018E+01
    3.894877E+00    1.633743E+01
    3.945889E+00    1.655000E+01
    3.999024E+00    1.676812E+01
    4.054403E+00    1.699200E+01
    4.112154E+00    1.722187E+01
    4.172419E+00    1.745798E+01
    4.235347E+00    1.770059E+01
    4.301099E+00    1.794996E+01
    4.369850E+00    1.820639E+01
    4.441788E+00    1.847017E+01
    4.517115E+00    1.874164E+01
    4.596051E+00    1.902112E+01
    4.678834E+00    1.930898E+01
    4.765722E+00    1.960560E+01
    4.856995E+00    1.991138E+01
    4.952959E+00    2.022675E+01
    5.053945E+00    2.055217E+01
    5.160317E+00    2.088812E+01
    5.272470E+00    2.123510E+01
    5.390838E+00    2.159368E+01
    5.515898E+00    2.196442E+01
    5.648171E+00    2.234795E+01
    5.788233E+00    2.274493E+01
    5.936718E+00    2.315605E+01
    6.094326E+00    2.358207E+01
    6.261835E+00    2.402379E+01
    6.440103E+00    2.448205E+01
    6.630089E+00    2.495777E+01
    6.832859E+00    2.545192E+01
    7.049605E+00    2.596553E+01
    7.281660E+00    2.649969E+01
    7.530523E+00    2.705559E+01
    7.797877E+00    2.763446E+01
    8.085625E+00    2.823763E+01
    8.395917E+00    2.886648E+01
    8.731191E+00    2.952248E+01
    9.094221E+00    3.020716E+01
    9.488169E+00    3.092211E+01
    9.916646E+00    3.166896E+01
    1.038379E+01    3.244935E+01
    1.089435E+01    3.326491E+01
    1.145377E+01    3.411717E+01
    1.206834E+01    3.500754E+01
    1.274528E+01    3.593718E+01
    1.349292E+01    3.690683E+01
    1.432085E+01    3.791669E+01
    1.524008E+01    3.896611E+01
    1.626325E+01    4.005320E+01
    1.740479E+01    4.117440E+01
    1.868097E+01    4.232373E+01
    2.010979E+01    4.349195E+01
    2.171063E+01    4.466548E+01
    2.350340E+01    4.582525E+01
    2.550709E+01    4.694556E+01
    2.773765E+01    4.799332E+01
    3.020517E+01    4.892808E+01
    3.291072E+01    4.970346E+01
    3.584378E+01    5.027019E+01
    3.898140E+01    5.058052E+01
    4.229000E+01    5.059269E+01
    4.572943E+01    5.027311E+01
    4.925717E+01    4.959512E+01
    5.282923E+01    4.853474E+01
    5.639612E+01    4.706724E+01
    5.989524E+01    4.516901E+01
    6.324522E+01    4.282710E+01
    6.634877E+01    4.005361E+01
    6.910661E+01    3.689723E+01
    7.143855E+01    3.344302E+01
    7.330040E+01    2.979748E+01
    7.468632E+01    2.606586E+01
    7.561488E+01    2.233621E+01
    7.611055E+01    1.868065E+01
