jMRUI Data Textfile
 
Filename: 2HG.txt
 
PointsInDataset: 2048
DatasetsInFile: 1
SamplingInterval: 5.00000E-01
ZeroOrderPhase: 0E0
BeginTime: 0E0
TransmitterFrequency: 1.27740E+08
MagneticField: 0E0
TypeOfNucleus: 0E0
NameOfPatient: 
DateOfExperiment: 
Spectrometer: Vespa-Simulation
AdditionalInfo: see 'readme' file for Vespa-Simulation output synopsis
 
  
Signal and FFT 
sig(real)	sig(imag)	fft(real)	fft(imag)
Signal 1 out of 1 in file
1.60548E+00	-3.51023E-01	6.48241E-01	-3.04931E+00
7.48377E-01	-1.23313E+00	6.45790E-01	-3.02442E+00
-3.57608E-01	-1.02765E+00	6.43455E-01	-3.00001E+00
-6.91619E-01	-9.23248E-02	6.41236E-01	-2.97607E+00
-6.56134E-02	5.44763E-01	6.39127E-01	-2.95258E+00
7.47276E-01	2.40956E-01	6.37121E-01	-2.92954E+00
8.45480E-01	-6.56996E-01	6.35205E-01	-2.90693E+00
9.51022E-02	-1.23145E+00	6.33374E-01	-2.88474E+00
-8.04275E-01	-9.36883E-01	6.31624E-01	-2.86294E+00
-1.07238E+00	-8.96828E-02	6.29957E-01	-2.84153E+00
-5.97770E-01	5.28024E-01	6.28371E-01	-2.82049E+00
4.45725E-02	4.62948E-01	6.26867E-01	-2.79981E+00
2.31334E-01	-3.47323E-02	6.25439E-01	-2.77950E+00
-1.19336E-01	-3.57957E-01	6.24081E-01	-2.75954E+00
-5.62077E-01	-1.70662E-01	6.22785E-01	-2.73992E+00
-6.30667E-01	3.24681E-01	6.21546E-01	-2.72063E+00
-2.73073E-01	6.69200E-01	6.20366E-01	-2.70165E+00
1.78652E-01	6.12547E-01	6.19246E-01	-2.68297E+00
3.82572E-01	2.92493E-01	6.18189E-01	-2.66459E+00
2.86994E-01	2.52544E-02	6.17190E-01	-2.64651E+00
1.00171E-01	-1.24348E-02	6.16242E-01	-2.62872E+00
3.89937E-02	1.04247E-01	6.15342E-01	-2.61121E+00
1.40181E-01	1.87012E-01	6.14489E-01	-2.59397E+00
2.83158E-01	1.29895E-01	6.13682E-01	-2.57699E+00
3.39744E-01	-2.68869E-02	6.12918E-01	-2.56027E+00
2.79934E-01	-1.76246E-01	6.12198E-01	-2.54380E+00
1.60111E-01	-2.48582E-01	6.11520E-01	-2.52757E+00
4.93365E-02	-2.45413E-01	6.10885E-01	-2.51158E+00
-2.06500E-02	-2.05937E-01	6.10290E-01	-2.49583E+00
-5.46994E-02	-1.64612E-01	6.09729E-01	-2.48031E+00
-7.10233E-02	-1.35679E-01	6.09199E-01	-2.46502E+00
-8.52572E-02	-1.18220E-01	6.08699E-01	-2.44993E+00
-1.05757E-01	-1.03846E-01	6.08231E-01	-2.43506E+00
-1.32417E-01	-8.20946E-02	6.07794E-01	-2.42039E+00
-1.57545E-01	-4.60094E-02	6.07394E-01	-2.40591E+00
-1.70536E-01	4.03776E-03	6.07028E-01	-2.39164E+00
-1.62988E-01	6.13125E-02	6.06695E-01	-2.37756E+00
-1.30330E-01	1.15136E-01	6.06388E-01	-2.36368E+00
-7.34788E-02	1.50890E-01	6.06105E-01	-2.34999E+00
-4.76101E-03	1.52719E-01	6.05842E-01	-2.33648E+00
4.93673E-02	1.16081E-01	6.05598E-01	-2.32315E+00
6.24631E-02	6.19664E-02	6.05375E-01	-2.30998E+00
3.51403E-02	3.06463E-02	6.05173E-01	-2.29698E+00
6.15550E-03	4.76824E-02	6.04992E-01	-2.28415E+00
2.34855E-02	9.11053E-02	6.04832E-01	-2.27147E+00
9.36641E-02	1.01405E-01	6.04693E-01	-2.25895E+00
1.62596E-01	3.76854E-02	6.04575E-01	-2.24659E+00
1.59510E-01	-7.21330E-02	6.04477E-01	-2.23437E+00
6.92003E-02	-1.45628E-01	6.04400E-01	-2.22230E+00
-4.20782E-02	-1.21534E-01	6.04348E-01	-2.21038E+00
-8.25867E-02	-2.43834E-02	6.04316E-01	-2.19860E+00
-2.36849E-02	5.19882E-02	6.04298E-01	-2.18698E+00
6.82356E-02	3.25977E-02	6.04287E-01	-2.17549E+00
9.31215E-02	-6.42912E-02	6.04285E-01	-2.16414E+00
1.43478E-02	-1.42207E-01	6.04291E-01	-2.15291E+00
-1.03927E-01	-1.18430E-01	6.04306E-01	-2.14180E+00
-1.56321E-01	-3.81440E-03	6.04345E-01	-2.13081E+00
-9.51088E-02	1.06284E-01	6.04412E-01	-2.11994E+00
2.56568E-02	1.20067E-01	6.04498E-01	-2.10920E+00
1.00437E-01	3.25401E-02	6.04597E-01	-2.09859E+00
6.79222E-02	-7.19545E-02	6.04709E-01	-2.08810E+00
-3.55771E-02	-9.72925E-02	6.04830E-01	-2.07773E+00
-1.10963E-01	-2.13888E-02	6.04949E-01	-2.06748E+00
-8.58771E-02	8.54636E-02	6.05071E-01	-2.05734E+00
2.07351E-02	1.24121E-01	6.05206E-01	-2.04729E+00
1.15098E-01	5.54220E-02	6.05355E-01	-2.03735E+00
1.11749E-01	-6.35919E-02	6.05511E-01	-2.02752E+00
1.08209E-02	-1.28804E-01	6.05675E-01	-2.01779E+00
-9.96921E-02	-8.20243E-02	6.05852E-01	-2.00816E+00
-1.21651E-01	3.46666E-02	6.06037E-01	-1.99863E+00
-3.67457E-02	1.14882E-01	6.06227E-01	-1.98919E+00
7.43693E-02	8.51364E-02	6.06428E-01	-1.97984E+00
1.05361E-01	-2.51205E-02	6.06641E-01	-1.97059E+00
2.46661E-02	-1.08735E-01	6.06864E-01	-1.96143E+00
-9.21547E-02	-8.13817E-02	6.07100E-01	-1.95236E+00
-1.32180E-01	3.66393E-02	6.07345E-01	-1.94339E+00
-5.28937E-02	1.37405E-01	6.07596E-01	-1.93451E+00
7.58041E-02	1.27381E-01	6.07850E-01	-1.92572E+00
1.37443E-01	1.69030E-02	6.08107E-01	-1.91702E+00
8.00290E-02	-8.98447E-02	6.08367E-01	-1.90840E+00
-3.51769E-02	-9.49828E-02	6.08630E-01	-1.89985E+00
-9.39243E-02	-6.19099E-06	6.08904E-01	-1.89138E+00
-3.88438E-02	9.76504E-02	6.09188E-01	-1.88300E+00
7.71806E-02	9.92855E-02	6.09473E-01	-1.87470E+00
1.43433E-01	-1.68263E-03	6.09758E-01	-1.86647E+00
9.64773E-02	-1.15744E-01	6.10050E-01	-1.85832E+00
-2.24534E-02	-1.42919E-01	6.10346E-01	-1.85025E+00
-1.08847E-01	-6.45686E-02	6.10639E-01	-1.84224E+00
-9.21639E-02	4.31180E-02	6.10943E-01	-1.83429E+00
2.28302E-03	8.18915E-02	6.11262E-01	-1.82642E+00
8.02096E-02	2.04409E-02	6.11587E-01	-1.81862E+00
6.52497E-02	-8.01439E-02	6.11915E-01	-1.81090E+00
-3.34756E-02	-1.23363E-01	6.12249E-01	-1.80324E+00
-1.30748E-01	-6.34387E-02	6.12588E-01	-1.79565E+00
-1.40673E-01	5.44871E-02	6.12925E-01	-1.78814E+00
-5.20314E-02	1.33409E-01	6.13261E-01	-1.78068E+00
6.08236E-02	1.08684E-01	6.13603E-01	-1.77329E+00
1.01515E-01	5.63647E-03	6.13953E-01	-1.76596E+00
3.66834E-02	-8.02140E-02	6.14303E-01	-1.75870E+00
-7.13269E-02	-6.65356E-02	6.14650E-01	-1.75150E+00
-1.16668E-01	3.95736E-02	6.14997E-01	-1.74435E+00
-4.58119E-02	1.42521E-01	6.15348E-01	-1.73727E+00
8.83649E-02	1.41900E-01	6.15702E-01	-1.73024E+00
1.68849E-01	2.71418E-02	6.16059E-01	-1.72326E+00
1.20972E-01	-1.06200E-01	6.16419E-01	-1.71634E+00
-1.40759E-02	-1.40619E-01	6.16789E-01	-1.70947E+00
-1.12453E-01	-4.72168E-02	6.17164E-01	-1.70266E+00
-8.21625E-02	8.30723E-02	6.17538E-01	-1.69591E+00
4.80142E-02	1.22244E-01	6.17917E-01	-1.68920E+00
1.52671E-01	2.65023E-02	6.18306E-01	-1.68256E+00
1.27112E-01	-1.20162E-01	6.18694E-01	-1.67598E+00
-1.33093E-02	-1.83382E-01	6.19074E-01	-1.66944E+00
-1.46648E-01	-1.03753E-01	6.19458E-01	-1.66295E+00
-1.57228E-01	4.85200E-02	6.19849E-01	-1.65652E+00
-4.08848E-02	1.39238E-01	6.20231E-01	-1.65014E+00
9.36800E-02	9.21922E-02	6.20608E-01	-1.64380E+00
1.24492E-01	-4.46105E-02	6.20997E-01	-1.63750E+00
2.39641E-02	-1.44511E-01	6.21393E-01	-1.63126E+00
-1.19131E-01	-1.14263E-01	6.21785E-01	-1.62506E+00
-1.77792E-01	2.58336E-02	6.22173E-01	-1.61891E+00
-9.57107E-02	1.59317E-01	6.22568E-01	-1.61279E+00
6.35214E-02	1.71626E-01	6.22971E-01	-1.60673E+00
1.67001E-01	4.82717E-02	6.23370E-01	-1.60072E+00
1.23975E-01	-1.07669E-01	6.23766E-01	-1.59474E+00
-3.16999E-02	-1.58288E-01	6.24174E-01	-1.58880E+00
-1.61808E-01	-5.15423E-02	6.24591E-01	-1.58291E+00
-1.40534E-01	1.23100E-01	6.24997E-01	-1.57707E+00
2.66407E-02	2.03830E-01	6.25402E-01	-1.57127E+00
1.94158E-01	1.02786E-01	6.25817E-01	-1.56551E+00
2.01959E-01	-1.01223E-01	6.26230E-01	-1.55980E+00
3.01421E-02	-2.22601E-01	6.26632E-01	-1.55413E+00
-1.68228E-01	-1.41240E-01	6.27034E-01	-1.54848E+00
-2.03819E-01	7.31601E-02	6.27447E-01	-1.54288E+00
-3.63558E-02	2.16407E-01	6.27856E-01	-1.53733E+00
1.76067E-01	1.44864E-01	6.28258E-01	-1.53181E+00
2.24720E-01	-7.81829E-02	6.28663E-01	-1.52632E+00
5.65858E-02	-2.37610E-01	6.29071E-01	-1.52087E+00
-1.68526E-01	-1.76710E-01	6.29474E-01	-1.51545E+00
-2.33611E-01	4.62252E-02	6.29877E-01	-1.51006E+00
-7.90009E-02	2.15101E-01	6.30290E-01	-1.50470E+00
1.40633E-01	1.70556E-01	6.30715E-01	-1.49938E+00
2.13125E-01	-3.54959E-02	6.31149E-01	-1.49410E+00
7.74191E-02	-1.98719E-01	6.31584E-01	-1.48887E+00
-1.25644E-01	-1.67861E-01	6.32016E-01	-1.48368E+00
-2.02049E-01	1.40705E-02	6.32441E-01	-1.47853E+00
-9.30002E-02	1.66961E-01	6.32852E-01	-1.47342E+00
8.35934E-02	1.56010E-01	6.33249E-01	-1.46833E+00
1.62783E-01	1.09107E-02	6.33644E-01	-1.46326E+00
8.87100E-02	-1.23588E-01	6.34047E-01	-1.45821E+00
-5.29502E-02	-1.34349E-01	6.34463E-01	-1.45320E+00
-1.34536E-01	-3.19524E-02	6.34884E-01	-1.44821E+00
-1.01579E-01	8.34724E-02	6.35307E-01	-1.44327E+00
6.94334E-04	1.22803E-01	6.35727E-01	-1.43836E+00
8.68445E-02	7.18224E-02	6.36144E-01	-1.43348E+00
1.01033E-01	-1.96992E-02	6.36560E-01	-1.42862E+00
4.29158E-02	-8.60365E-02	6.36979E-01	-1.42379E+00
-4.47188E-02	-8.39312E-02	6.37404E-01	-1.41900E+00
-1.00695E-01	-1.18477E-02	6.37832E-01	-1.41423E+00
-7.71963E-02	8.38864E-02	6.38261E-01	-1.40950E+00
2.20804E-02	1.27654E-01	6.38687E-01	-1.40481E+00
1.26201E-01	6.89561E-02	6.39107E-01	-1.40014E+00
1.40860E-01	-6.03271E-02	6.39518E-01	-1.39550E+00
3.60887E-02	-1.52015E-01	6.39927E-01	-1.39088E+00
-1.05352E-01	-1.12835E-01	6.40338E-01	-1.38628E+00
-1.48781E-01	3.45404E-02	6.40756E-01	-1.38171E+00
-3.93095E-02	1.52923E-01	6.41177E-01	-1.37717E+00
1.27195E-01	1.16502E-01	6.41599E-01	-1.37266E+00
1.84179E-01	-5.50998E-02	6.42017E-01	-1.36817E+00
6.08557E-02	-2.00442E-01	6.42429E-01	-1.36372E+00
-1.34722E-01	-1.71095E-01	6.42838E-01	-1.35928E+00
-2.14052E-01	1.35529E-02	6.43246E-01	-1.35486E+00
-9.76450E-02	1.76665E-01	6.43659E-01	-1.35046E+00
9.92952E-02	1.58697E-01	6.44083E-01	-1.34608E+00
1.79452E-01	-1.96746E-02	6.44518E-01	-1.34173E+00
6.25546E-02	-1.76512E-01	6.44958E-01	-1.33742E+00
-1.33661E-01	-1.52139E-01	6.45396E-01	-1.33315E+00
-2.13587E-01	3.09921E-02	6.45822E-01	-1.32891E+00
-9.99732E-02	1.94625E-01	6.46232E-01	-1.32469E+00
9.40211E-02	1.85625E-01	6.46628E-01	-1.32049E+00
1.84223E-01	2.41872E-02	6.47021E-01	-1.31630E+00
9.78128E-02	-1.26149E-01	6.47420E-01	-1.31212E+00
-6.48786E-02	-1.25766E-01	6.47834E-01	-1.30795E+00
-1.40261E-01	1.00735E-02	6.48257E-01	-1.30382E+00
-6.17109E-02	1.39814E-01	6.48678E-01	-1.29971E+00
8.78032E-02	1.40425E-01	6.49088E-01	-1.29564E+00
1.68370E-01	1.87699E-02	6.49492E-01	-1.29158E+00
1.16634E-01	-1.10012E-01	6.49899E-01	-1.28753E+00
-7.86517E-03	-1.38972E-01	6.50316E-01	-1.28349E+00
-9.21211E-02	-6.14339E-02	6.50741E-01	-1.27948E+00
-7.45585E-02	3.86648E-02	6.51169E-01	-1.27550E+00
1.15050E-02	7.17815E-02	6.51600E-01	-1.27155E+00
