jMRUI Data Textfile
 
Filename: Cho.txt
 
PointsInDataset: 2048
DatasetsInFile: 1
SamplingInterval: 5.00000E-01
ZeroOrderPhase: 0E0
BeginTime: 0E0
TransmitterFrequency: 1.27740E+08
MagneticField: 0E0
TypeOfNucleus: 0E0
NameOfPatient: 
DateOfExperiment: 
Spectrometer: Vespa-Simulation
AdditionalInfo: see 'readme' file for Vespa-Simulation output synopsis
 
  
Signal and FFT 
sig(real)	sig(imag)	fft(real)	fft(imag)
Signal 1 out of 1 in file
8.99590E+00	-6.49680E-08	4.77369E+00	-1.43328E+01
7.30311E+00	-5.08236E+00	4.77105E+00	-1.42563E+01
3.05750E+00	-8.25197E+00	4.76843E+00	-1.41805E+01
-2.17989E+00	-8.42651E+00	4.76582E+00	-1.41054E+01
-6.53033E+00	-5.60927E+00	4.76325E+00	-1.40310E+01
-8.47046E+00	-8.64359E-01	4.76073E+00	-1.39573E+01
-7.36480E+00	4.08375E+00	4.75829E+00	-1.38843E+01
-3.67171E+00	7.47605E+00	4.75591E+00	-1.38120E+01
1.24289E+00	8.14352E+00	4.75356E+00	-1.37404E+01
5.60969E+00	5.90886E+00	4.75121E+00	-1.36695E+01
7.89224E+00	1.62766E+00	4.74887E+00	-1.35993E+01
7.32654E+00	-3.13739E+00	4.74654E+00	-1.35297E+01
4.17527E+00	-6.68609E+00	4.74423E+00	-1.34607E+01
-3.87800E-01	-7.78662E+00	4.74194E+00	-1.33923E+01
-4.71386E+00	-6.10212E+00	4.73971E+00	-1.33245E+01
-7.27409E+00	-2.29066E+00	4.73755E+00	-1.32574E+01
-7.19920E+00	2.24994E+00	4.73545E+00	-1.31908E+01
-4.57321E+00	5.89365E+00	4.73337E+00	-1.31249E+01
-3.82991E-01	7.36805E+00	4.73130E+00	-1.30596E+01
3.85161E+00	6.19771E+00	4.72924E+00	-1.29948E+01
6.62806E+00	2.85533E+00	4.72720E+00	-1.29306E+01
6.99369E+00	-1.42653E+00	4.72522E+00	-1.28670E+01
4.87151E+00	-5.10905E+00	4.72330E+00	-1.28039E+01
1.06834E+00	-6.89957E+00	4.72143E+00	-1.27413E+01
-3.03055E+00	-6.20452E+00	4.71959E+00	-1.26794E+01
-5.96531E+00	-3.32467E+00	4.71775E+00	-1.26180E+01
-6.72075E+00	6.71096E-01	4.71591E+00	-1.25572E+01
-5.07666E+00	4.34156E+00	4.71405E+00	-1.24969E+01
-1.66844E+00	6.39235E+00	4.71217E+00	-1.24371E+01
2.25679E+00	6.13174E+00	4.71026E+00	-1.23778E+01
5.29601E+00	3.70268E+00	4.70836E+00	-1.23189E+01
6.39091E+00	1.38753E-02	4.70656E+00	-1.22605E+01
5.19578E+00	-3.59917E+00	4.70485E+00	-1.22025E+01
2.18456E+00	-5.85691E+00	4.70319E+00	-1.21451E+01
-1.53540E+00	-5.98856E+00	4.70151E+00	-1.20882E+01
-4.62943E+00	-3.99397E+00	4.69976E+00	-1.20318E+01
-6.01429E+00	-6.26940E-01	4.69797E+00	-1.19758E+01
-5.23634E+00	2.88871E+00	4.69627E+00	-1.19201E+01
-2.61881E+00	5.30303E+00	4.69470E+00	-1.18648E+01
8.69976E-01	5.78420E+00	4.69323E+00	-1.18101E+01
3.97377E+00	4.20394E+00	4.69181E+00	-1.17558E+01
5.60062E+00	1.16769E+00	4.69037E+00	-1.17021E+01
5.20599E+00	-2.21596E+00	4.68887E+00	-1.16489E+01
2.97412E+00	-4.73977E+00	4.68728E+00	-1.15961E+01
-2.63265E-01	-5.52764E+00	4.68565E+00	-1.15436E+01
-3.33636E+00	-4.33831E+00	4.68406E+00	-1.14914E+01
-5.15903E+00	-1.63691E+00	4.68256E+00	-1.14396E+01
-5.11254E+00	1.58559E+00	4.68114E+00	-1.13882E+01
-3.25434E+00	4.17523E+00	4.67975E+00	-1.13373E+01
-2.83113E-01	5.22761E+00	4.67835E+00	-1.12868E+01
2.72332E+00	4.40338E+00	4.67692E+00	-1.12367E+01
4.69809E+00	2.03601E+00	4.67547E+00	-1.11869E+01
4.96376E+00	-1.00129E+00	4.67404E+00	-1.11375E+01
3.46366E+00	-3.61680E+00	4.67268E+00	-1.10883E+01
7.68410E-01	-4.89251E+00	4.67142E+00	-1.10395E+01
-2.14000E+00	-4.40549E+00	4.67028E+00	-1.09911E+01
-4.22577E+00	-2.36717E+00	4.66921E+00	-1.09432E+01
-4.76739E+00	4.65593E-01	4.66813E+00	-1.08958E+01
-3.60683E+00	3.07099E+00	4.66696E+00	-1.08488E+01
-1.19294E+00	4.53028E+00	4.66568E+00	-1.08021E+01
1.59075E+00	4.35124E+00	4.66431E+00	-1.07558E+01
3.74925E+00	2.63336E+00	4.66292E+00	-1.07096E+01
4.53090E+00	1.96742E-02	4.66159E+00	-1.06637E+01
3.68891E+00	-2.54351E+00	4.66036E+00	-1.06181E+01
1.55752E+00	-4.14845E+00	4.65919E+00	-1.05729E+01
-1.07905E+00	-4.24720E+00	4.65801E+00	-1.05281E+01
-3.27508E+00	-2.83795E+00	4.65678E+00	-1.04836E+01
-4.26154E+00	-4.53525E-01	4.65550E+00	-1.04394E+01
-3.71531E+00	2.03917E+00	4.65420E+00	-1.03953E+01
-1.86394E+00	3.75388E+00	4.65300E+00	-1.03514E+01
6.07555E-01	4.09994E+00	4.65200E+00	-1.03078E+01
2.80915E+00	2.98473E+00	4.65126E+00	-1.02645E+01
3.96619E+00	8.35968E-01	4.65070E+00	-1.02217E+01
3.69157E+00	-1.56188E+00	4.65017E+00	-1.01796E+01
2.11415E+00	-3.35307E+00	4.64943E+00	-1.01381E+01
-1.78038E-01	-3.91591E+00	4.64831E+00	-1.00970E+01
-2.35644E+00	-3.07801E+00	4.64679E+00	-1.00560E+01
-3.65140E+00	-1.16729E+00	4.64508E+00	-1.00148E+01
-3.62317E+00	1.11512E+00	4.64350E+00	-9.97357E+00
-2.31098E+00	2.95176E+00	4.64228E+00	-9.93238E+00
-2.08513E-01	3.70131E+00	4.64133E+00	-9.89159E+00
1.92152E+00	3.12207E+00	4.64039E+00	-9.85115E+00
3.32323E+00	1.44871E+00	4.63953E+00	-9.81087E+00
3.51576E+00	-7.01207E-01	4.63898E+00	-9.77083E+00
2.45757E+00	-2.55510E+00	4.63874E+00	-9.73135E+00
5.51459E-01	-3.46212E+00	4.63850E+00	-9.69260E+00
-1.50803E+00	-3.12161E+00	4.63797E+00	-9.65444E+00
-2.98727E+00	-1.68198E+00	4.63700E+00	-9.61661E+00
-3.37477E+00	3.22192E-01	4.63567E+00	-9.57884E+00
-2.55720E+00	2.16780E+00	4.63419E+00	-9.54096E+00
-8.51092E-01	3.20400E+00	4.63279E+00	-9.50298E+00
1.11892E+00	3.08135E+00	4.63163E+00	-9.46504E+00
2.64872E+00	1.86899E+00	4.63074E+00	-9.42733E+00
3.20558E+00	2.08344E-02	4.63005E+00	-9.38997E+00
2.61366E+00	-1.79371E+00	4.62943E+00	-9.35302E+00
1.10821E+00	-2.93222E+00	4.62877E+00	-9.31644E+00
-7.56792E-01	-3.00594E+00	4.62803E+00	-9.28013E+00
-2.31217E+00	-2.01231E+00	4.62724E+00	-9.24402E+00
-3.01333E+00	-3.27347E-01	4.62646E+00	-9.20811E+00
-2.63067E+00	1.43639E+00	4.62571E+00	-9.17242E+00
-1.32384E+00	2.65178E+00	4.62499E+00	-9.13699E+00
4.23361E-01	2.90008E+00	4.62427E+00	-9.10183E+00
1.98166E+00	2.11476E+00	4.62351E+00	-9.06693E+00
2.80292E+00	5.97100E-01	4.62268E+00	-9.03225E+00
2.61224E+00	-1.09858E+00	4.62179E+00	-8.99775E+00
1.49974E+00	-2.36712E+00	4.62086E+00	-8.96339E+00
-1.19803E-01	-2.76836E+00	4.61994E+00	-8.92915E+00
-1.66092E+00	-2.17924E+00	4.61908E+00	-8.89504E+00
-2.57898E+00	-8.30591E-01	4.61831E+00	-8.86112E+00
-2.56236E+00	7.82502E-01	4.61763E+00	-8.82742E+00
-1.63771E+00	2.08242E+00	4.61698E+00	-8.79397E+00
-1.52987E-01	2.61519E+00	4.61634E+00	-8.76077E+00
1.35299E+00	2.20898E+00	4.61569E+00	-8.72779E+00
2.34580E+00	1.02872E+00	4.61504E+00	-8.69501E+00
2.48496E+00	-4.90047E-01	4.61440E+00	-8.66242E+00
1.74006E+00	-1.80132E+00	4.61377E+00	-8.63005E+00
3.94899E-01	-2.44481E+00	4.61314E+00	-8.59790E+00
-1.06039E+00	-2.20731E+00	4.61248E+00	-8.56595E+00
-2.10738E+00	-1.19255E+00	4.61180E+00	-8.53417E+00
-2.38397E+00	2.22411E-01	4.61113E+00	-8.50255E+00
-1.80929E+00	1.52699E+00	4.61045E+00	-8.47113E+00
-6.05959E-01	2.26125E+00	4.60977E+00	-8.43988E+00
7.85403E-01	2.17752E+00	4.60909E+00	-8.40880E+00
1.86735E+00	1.32368E+00	4.60841E+00	-8.37788E+00
2.26319E+00	1.96549E-02	4.60773E+00	-8.34714E+00
1.84792E+00	-1.26234E+00	4.60702E+00	-8.31653E+00
7.86787E-01	-2.06826E+00	4.60635E+00	-8.28601E+00
-5.29630E-01	-2.12299E+00	4.60581E+00	-8.25564E+00
-1.62895E+00	-1.42388E+00	4.60536E+00	-8.22555E+00
-2.12627E+00	-2.35685E-01	4.60489E+00	-8.19576E+00
-1.85879E+00	1.00966E+00	4.60430E+00	-8.16619E+00
-9.38314E-01	1.86930E+00	4.60359E+00	-8.13672E+00
2.94271E-01	2.04708E+00	4.60288E+00	-8.10729E+00
1.39504E+00	1.49519E+00	4.60228E+00	-8.07794E+00
1.97669E+00	4.25549E-01	4.60179E+00	-8.04880E+00
1.84461E+00	-7.71077E-01	4.60130E+00	-8.01994E+00
1.06155E+00	-1.66764E+00	4.60074E+00	-7.99128E+00
-8.02430E-02	-1.95300E+00	4.60011E+00	-7.96274E+00
-1.16819E+00	-1.53970E+00	4.59946E+00	-7.93429E+00
-1.81770E+00	-5.89799E-01	4.59882E+00	-7.90595E+00
-1.80833E+00	5.47971E-01	4.59823E+00	-7.87771E+00
-1.15810E+00	1.46606E+00	4.59770E+00	-7.84960E+00
-1.11859E-01	1.84391E+00	4.59724E+00	-7.82167E+00
9.50654E-01	1.55965E+00	4.59680E+00	-7.79394E+00
1.65237E+00	7.28934E-01	4.59636E+00	-7.76641E+00
1.75271E+00	-3.41666E-01	4.59589E+00	-7.73905E+00
1.22947E+00	-1.26720E+00	4.59540E+00	-7.71182E+00
2.82092E-01	-1.72281E+00	4.59489E+00	-7.68473E+00
-7.44092E-01	-1.55750E+00	4.59438E+00	-7.65775E+00
-1.48353E+00	-8.43751E-01	4.59390E+00	-7.63087E+00
-1.68052E+00	1.53127E-01	4.59348E+00	-7.60416E+00
-1.27742E+00	1.07333E+00	4.59308E+00	-7.57764E+00
-4.30492E-01	1.59254E+00	4.59264E+00	-7.55129E+00
5.50072E-01	1.53557E+00	4.59217E+00	-7.52507E+00
1.31368E+00	9.35525E-01	4.59169E+00	-7.49898E+00
1.59448E+00	1.72873E-02	4.59121E+00	-7.47300E+00
1.30377E+00	-8.86503E-01	4.59073E+00	-7.44714E+00
5.57391E-01	-1.45578E+00	4.59028E+00	-7.42139E+00
-3.69844E-01	-1.49623E+00	4.58986E+00	-7.39579E+00
-1.14513E+00	-1.00545E+00	4.58946E+00	-7.37036E+00
-1.49717E+00	-1.69223E-01	4.58904E+00	-7.34510E+00
-1.31059E+00	7.08231E-01	4.58859E+00	-7.31999E+00
-6.63603E-01	1.31494E+00	4.58809E+00	-7.29502E+00
2.04103E-01	1.44191E+00	4.58752E+00	-7.27015E+00
9.79984E-01	1.05489E+00	4.58691E+00	-7.24534E+00
1.39106E+00	3.02614E-01	4.58632E+00	-7.22056E+00
1.29982E+00	-5.39972E-01	4.58577E+00	-7.19586E+00
7.49889E-01	-1.17230E+00	4.58528E+00	-7.17127E+00
-5.35186E-02	-1.37487E+00	4.58482E+00	-7.14681E+00
-8.19907E-01	-1.08552E+00	4.58438E+00	-7.12247E+00
-1.27843E+00	-4.17870E-01	4.58397E+00	-7.09824E+00
-1.27347E+00	3.82899E-01	4.58359E+00	-7.07414E+00
-8.17205E-01	1.02994E+00	4.58323E+00	-7.05017E+00
-8.15834E-02	1.29733E+00	4.58290E+00	-7.02634E+00
6.66473E-01	1.09888E+00	4.58258E+00	-7.00267E+00
1.16145E+00	5.15366E-01	4.58224E+00	-6.97917E+00
1.23359E+00	-2.37710E-01	4.58184E+00	-6.95580E+00
8.66827E-01	-8.89581E-01	4.58137E+00	-6.93249E+00
2.01046E-01	-1.21145E+00	4.58090E+00	-6.90920E+00
-5.21015E-01	-1.09664E+00	4.58052E+00	-6.88596E+00
-1.04213E+00	-5.95686E-01	4.58024E+00	-6.86287E+00
-1.18212E+00	1.05076E-01	4.58000E+00	-6.83999E+00
-8.99949E-01	7.52866E-01	4.57972E+00	-6.81729E+00
-3.05131E-01	1.11919E+00	4.57938E+00	-6.79474E+00
3.84446E-01	1.08055E+00	4.57897E+00	-6.77229E+00
9.22208E-01	6.59747E-01	4.57850E+00	-6.74992E+00
1.12096E+00	1.45717E-02	4.57799E+00	-6.72759E+00
9.17877E-01	-6.21225E-01	4.57749E+00	-6.70531E+00
3.94077E-01	-1.02246E+00	4.57700E+00	-6.68308E+00
-2.57632E-01	-1.05226E+00	4.57655E+00	-6.66091E+00
-8.03319E-01	-7.08406E-01	4.57614E+00	-6.63882E+00
