jMRUI Data Textfile
 
Filename: ETA.txt
 
PointsInDataset: 2048
DatasetsInFile: 1
SamplingInterval: 5.00000E-01
ZeroOrderPhase: 0E0
BeginTime: 0E0
TransmitterFrequency: 1.27740E+08
MagneticField: 0E0
TypeOfNucleus: 0E0
NameOfPatient: 
DateOfExperiment: 
Spectrometer: Vespa-Simulation
AdditionalInfo: see 'readme' file for Vespa-Simulation output synopsis
 
  
Signal and FFT 
sig(real)	sig(imag)	fft(real)	fft(imag)
Signal 1 out of 1 in file
1.98521E+00	-2.57208E-04	1.14226E+00	-4.31263E+00
1.71724E+00	-9.12580E-01	1.13971E+00	-4.28033E+00
1.04728E+00	-1.55070E+00	1.13722E+00	-4.24853E+00
1.86519E-01	-1.75830E+00	1.13479E+00	-4.21720E+00
-6.11961E-01	-1.52066E+00	1.13242E+00	-4.18633E+00
-1.13830E+00	-9.58695E-01	1.13011E+00	-4.15590E+00
-1.29002E+00	-2.77359E-01	1.12786E+00	-4.12591E+00
-1.09414E+00	3.10244E-01	1.12566E+00	-4.09634E+00
-6.82820E-01	6.54489E-01	1.12353E+00	-4.06720E+00
-2.34989E-01	7.11604E-01	1.12145E+00	-4.03846E+00
9.23668E-02	5.44250E-01	1.11942E+00	-4.01013E+00
2.17446E-01	2.83838E-01	1.11745E+00	-3.98219E+00
1.53540E-01	7.18150E-02	1.11552E+00	-3.95464E+00
-8.77979E-03	3.44858E-03	1.11362E+00	-3.92747E+00
-1.47214E-01	9.48481E-02	1.11177E+00	-3.90065E+00
-1.61557E-01	2.83737E-01	1.10996E+00	-3.87419E+00
-1.46595E-02	4.61060E-01	1.10821E+00	-3.84808E+00
2.54196E-01	5.19155E-01	1.10650E+00	-3.82231E+00
5.46917E-01	3.96976E-01	1.10483E+00	-3.79689E+00
7.46673E-01	1.05213E-01	1.10320E+00	-3.77180E+00
7.63994E-01	-2.77171E-01	1.10160E+00	-3.74704E+00
5.71232E-01	-6.32327E-01	1.10003E+00	-3.72260E+00
2.13066E-01	-8.46630E-01	1.09849E+00	-3.69846E+00
-2.09701E-01	-8.50967E-01	1.09699E+00	-3.67461E+00
-5.75801E-01	-6.43703E-01	1.09552E+00	-3.65107E+00
-7.84765E-01	-2.89014E-01	1.09410E+00	-3.62781E+00
-7.88817E-01	1.07353E-01	1.09271E+00	-3.60485E+00
-6.04829E-01	4.34865E-01	1.09135E+00	-3.58217E+00
-3.03647E-01	6.13796E-01	1.09001E+00	-3.55978E+00
1.76351E-02	6.17432E-01	1.08870E+00	-3.53766E+00
2.69384E-01	4.74435E-01	1.08740E+00	-3.51580E+00
3.96876E-01	2.52539E-01	1.08613E+00	-3.49419E+00
3.92769E-01	3.11863E-02	1.08489E+00	-3.47282E+00
2.91970E-01	-1.26146E-01	1.08369E+00	-3.45170E+00
1.52830E-01	-1.90322E-01	1.08252E+00	-3.43084E+00
3.30247E-02	-1.70275E-01	1.08138E+00	-3.41023E+00
-3.06568E-02	-1.02799E-01	1.08025E+00	-3.38987E+00
-3.18597E-02	-3.38683E-02	1.07912E+00	-3.36974E+00
8.44594E-03	5.20354E-04	1.07802E+00	-3.34982E+00
5.48694E-02	-1.31021E-02	1.07694E+00	-3.33012E+00
7.41963E-02	-6.35350E-02	1.07589E+00	-3.31063E+00
4.89530E-02	-1.22628E-01	1.07487E+00	-3.29136E+00
-1.68035E-02	-1.58695E-01	1.07388E+00	-3.27231E+00
-1.00746E-01	-1.49876E-01	1.07291E+00	-3.25348E+00
-1.72273E-01	-9.23724E-02	1.07194E+00	-3.23487E+00
-2.04772E-01	-1.05241E-03	1.07099E+00	-3.21646E+00
-1.85290E-01	9.69380E-02	1.07004E+00	-3.19823E+00
-1.18393E-01	1.72464E-01	1.06911E+00	-3.18019E+00
-2.34817E-02	2.04386E-01	1.06821E+00	-3.16233E+00
7.26517E-02	1.85782E-01	1.06733E+00	-3.14466E+00
1.44874E-01	1.24748E-01	1.06648E+00	-3.12719E+00
1.77004E-01	4.02913E-02	1.06565E+00	-3.10990E+00
1.65287E-01	-4.45444E-02	1.06482E+00	-3.09281E+00
1.17567E-01	-1.09590E-01	1.06400E+00	-3.07590E+00
4.92974E-02	-1.42356E-01	1.06318E+00	-3.05915E+00
-2.16704E-02	-1.39707E-01	1.06237E+00	-3.04255E+00
-7.97064E-02	-1.06743E-01	1.06159E+00	-3.02612E+00
-1.14262E-01	-5.40110E-02	1.06083E+00	-3.00984E+00
-1.20856E-01	5.64876E-03	1.06010E+00	-2.99374E+00
-1.00661E-01	5.97234E-02	1.05939E+00	-2.97781E+00
-5.94498E-02	9.78350E-02	1.05868E+00	-2.96206E+00
-6.36083E-03	1.12962E-01	1.05797E+00	-2.94647E+00
4.74238E-02	1.02344E-01	1.05725E+00	-2.93102E+00
9.03403E-02	6.81622E-02	1.05652E+00	-2.91571E+00
1.12555E-01	1.76642E-02	1.05582E+00	-2.90052E+00
1.08348E-01	-3.77352E-02	1.05515E+00	-2.88545E+00
7.80817E-02	-8.47024E-02	1.05451E+00	-2.87053E+00
2.88695E-02	-1.11295E-01	1.05391E+00	-2.85578E+00
-2.67205E-02	-1.10535E-01	1.05332E+00	-2.84119E+00
-7.39455E-02	-8.29240E-02	1.05271E+00	-2.82677E+00
-1.00337E-01	-3.67813E-02	1.05208E+00	-2.81248E+00
-9.97961E-02	1.40731E-02	1.05144E+00	-2.79828E+00
-7.47955E-02	5.47612E-02	1.05083E+00	-2.78420E+00
-3.56073E-02	7.44477E-02	1.05026E+00	-2.77024E+00
3.37115E-03	7.01625E-02	1.04970E+00	-2.75642E+00
2.89900E-02	4.78104E-02	1.04915E+00	-2.74274E+00
3.43948E-02	1.97604E-02	1.04860E+00	-2.72920E+00
2.17232E-02	-2.08392E-04	1.04804E+00	-2.71576E+00
1.22412E-03	-2.68966E-03	1.04749E+00	-2.70243E+00
-1.30213E-02	1.31367E-02	1.04697E+00	-2.68921E+00
-9.22322E-03	3.87017E-02	1.04647E+00	-2.67612E+00
1.65799E-02	5.91914E-02	1.04599E+00	-2.66318E+00
5.78911E-02	5.95898E-02	1.04547E+00	-2.65036E+00
9.93306E-02	3.13403E-02	1.04493E+00	-2.63764E+00
1.22079E-01	-2.30824E-02	1.04440E+00	-2.62499E+00
1.11249E-01	-8.96657E-02	1.04390E+00	-2.61242E+00
6.23951E-02	-1.46962E-01	1.04344E+00	-2.59996E+00
-1.54786E-02	-1.73479E-01	1.04301E+00	-2.58763E+00
-1.01850E-01	-1.55711E-01	1.04259E+00	-2.57543E+00
-1.71031E-01	-9.37587E-02	1.04216E+00	-2.56335E+00
-2.00861E-01	-2.30588E-03	1.04171E+00	-2.55138E+00
-1.80549E-01	9.36323E-02	1.04125E+00	-2.53950E+00
-1.14739E-01	1.66826E-01	1.04079E+00	-2.52771E+00
-2.22503E-02	1.96871E-01	1.04034E+00	-2.51599E+00
7.01649E-02	1.76983E-01	1.03991E+00	-2.50436E+00
1.36827E-01	1.16000E-01	1.03950E+00	-2.49283E+00
1.61583E-01	3.49198E-02	1.03910E+00	-2.48140E+00
1.42751E-01	-4.07220E-02	1.03871E+00	-2.47007E+00
9.27606E-02	-8.97944E-02	1.03832E+00	-2.45883E+00
3.27788E-02	-1.02552E-01	1.03792E+00	-2.44769E+00
-1.55343E-02	-8.31084E-02	1.03753E+00	-2.43664E+00
-3.80109E-02	-4.66994E-02	1.03715E+00	-2.42567E+00
-3.26938E-02	-1.28984E-02	1.03677E+00	-2.41478E+00
-9.61827E-03	2.47796E-03	1.03640E+00	-2.40398E+00
1.41038E-02	-6.39043E-03	1.03603E+00	-2.39326E+00
2.18433E-02	-3.32912E-02	1.03567E+00	-2.38264E+00
4.64284E-03	-6.28692E-02	1.03531E+00	-2.37209E+00
-3.47902E-02	-7.72056E-02	1.03495E+00	-2.36162E+00
-8.28334E-02	-6.34672E-02	1.03460E+00	-2.35124E+00
-1.20125E-01	-1.96036E-02	1.03426E+00	-2.34093E+00
-1.29148E-01	4.41545E-02	1.03392E+00	-2.33070E+00
-1.01263E-01	1.08554E-01	1.03358E+00	-2.32055E+00
-4.05188E-02	1.52152E-01	1.03323E+00	-2.31047E+00
3.72403E-02	1.59105E-01	1.03290E+00	-2.30046E+00
1.09649E-01	1.25010E-01	1.03258E+00	-2.29052E+00
1.55444E-01	5.86340E-02	1.03228E+00	-2.28065E+00
1.61705E-01	-2.10330E-02	1.03199E+00	-2.27088E+00
1.28027E-01	-9.12977E-02	1.03169E+00	-2.26119E+00
6.62456E-02	-1.33344E-01	1.03138E+00	-2.25158E+00
-4.05488E-03	-1.38216E-01	1.03105E+00	-2.24203E+00
-6.24566E-02	-1.09086E-01	1.03072E+00	-2.23251E+00
-9.44904E-02	-5.92035E-02	1.03042E+00	-2.22305E+00
-9.58290E-02	-6.52570E-03	1.03015E+00	-2.21367E+00
-7.26262E-02	3.28492E-02	1.02990E+00	-2.20438E+00
-3.81133E-02	4.99861E-02	1.02963E+00	-2.19517E+00
-6.99115E-03	4.53351E-02	1.02934E+00	-2.18604E+00
1.01305E-02	2.72879E-02	1.02903E+00	-2.17696E+00
1.02081E-02	7.93751E-03	1.02873E+00	-2.16791E+00
-1.99516E-03	-2.15522E-03	1.02845E+00	-2.15891E+00
-1.67249E-02	1.89630E-03	1.02820E+00	-2.14997E+00
-2.37864E-02	1.77645E-02	1.02796E+00	-2.14111E+00
-1.69288E-02	3.73665E-02	1.02773E+00	-2.13234E+00
3.62955E-03	5.05563E-02	1.02749E+00	-2.12364E+00
3.14133E-02	4.94567E-02	1.02722E+00	-2.11500E+00
5.63939E-02	3.17020E-02	1.02695E+00	-2.10640E+00
6.89945E-02	1.38732E-03	1.02668E+00	-2.09784E+00
6.37785E-02	-3.25163E-02	1.02643E+00	-2.08934E+00
4.14344E-02	-5.95347E-02	1.02619E+00	-2.08089E+00
8.38545E-03	-7.14883E-02	1.02596E+00	-2.07250E+00
-2.56384E-02	-6.52325E-02	1.02574E+00	-2.06418E+00
-5.10757E-02	-4.34578E-02	1.02552E+00	-2.05593E+00
-6.16740E-02	-1.33724E-02	1.02528E+00	-2.04774E+00
-5.62038E-02	1.60495E-02	1.02504E+00	-2.03959E+00
-3.82770E-02	3.71230E-02	1.02479E+00	-2.03148E+00
-1.45596E-02	4.56863E-02	1.02455E+00	-2.02341E+00
7.78841E-03	4.18352E-02	1.02434E+00	-2.01539E+00
2.33887E-02	2.91045E-02	1.02414E+00	-2.00742E+00
2.99101E-02	1.26739E-02	1.02396E+00	-1.99952E+00
2.80321E-02	-2.59149E-03	1.02377E+00	-1.99170E+00
2.04031E-02	-1.35019E-02	1.02357E+00	-1.98395E+00
1.02256E-02	-1.89371E-02	1.02334E+00	-1.97624E+00
1.22327E-04	-1.93763E-02	1.02310E+00	-1.96856E+00
-8.33036E-03	-1.60173E-02	1.02285E+00	-1.96090E+00
-1.43934E-02	-1.00244E-02	1.02262E+00	-1.95327E+00
-1.76423E-02	-2.26566E-03	1.02243E+00	-1.94567E+00
-1.75668E-02	6.45205E-03	1.02227E+00	-1.93813E+00
-1.36084E-02	1.49417E-02	1.02213E+00	-1.93067E+00
-5.63828E-03	2.14075E-02	1.02197E+00	-1.92330E+00
5.43169E-03	2.37249E-02	1.02177E+00	-1.91598E+00
1.73432E-02	2.02214E-02	1.02155E+00	-1.90867E+00
2.68334E-02	1.06197E-02	1.02134E+00	-1.90139E+00
3.06249E-02	-3.35209E-03	1.02116E+00	-1.89414E+00
2.67440E-02	-1.81211E-02	1.02098E+00	-1.88695E+00
1.55655E-02	-2.92983E-02	1.02081E+00	-1.87981E+00
3.90426E-05	-3.32633E-02	1.02063E+00	-1.87273E+00
-1.51500E-02	-2.86714E-02	1.02043E+00	-1.86567E+00
-2.52634E-02	-1.71923E-02	1.02024E+00	-1.85864E+00
-2.74042E-02	-3.04450E-03	1.02007E+00	-1.85163E+00
-2.17911E-02	8.58960E-03	1.01994E+00	-1.84469E+00
-1.18107E-02	1.37112E-02	1.01981E+00	-1.83782E+00
-2.67930E-03	1.13070E-02	1.01964E+00	-1.83103E+00
8.21294E-04	3.97884E-03	1.01943E+00	-1.82426E+00
-3.37657E-03	-2.99705E-03	1.01921E+00	-1.81748E+00
-1.33432E-02	-3.92651E-03	1.01901E+00	-1.81071E+00
-2.35450E-02	4.59276E-03	1.01884E+00	-1.80396E+00
-2.69247E-02	2.16493E-02	1.01872E+00	-1.79726E+00
-1.79605E-02	4.16569E-02	1.01861E+00	-1.79064E+00
4.50875E-03	5.60070E-02	1.01849E+00	-1.78409E+00
3.59274E-02	5.62719E-02	1.01835E+00	-1.77759E+00
6.68809E-02	3.77964E-02	1.01817E+00	-1.77112E+00
8.60688E-02	2.23758E-03	1.01799E+00	-1.76466E+00
8.44192E-02	-4.20881E-02	1.01781E+00	-1.75821E+00
5.88112E-02	-8.24409E-02	1.01765E+00	-1.75179E+00
1.39246E-02	-1.05774E-01	1.01751E+00	-1.74541E+00
-3.86720E-02	-1.03385E-01	1.01738E+00	-1.73908E+00
-8.40473E-02	-7.43009E-02	1.01726E+00	-1.73279E+00
-1.08879E-01	-2.60578E-02	1.01712E+00	-1.72655E+00
-1.06083E-01	2.75634E-02	1.01698E+00	-1.72035E+00
-7.73639E-02	7.11239E-02	1.01683E+00	-1.71417E+00
-3.26296E-02	9.28379E-02	1.01668E+00	-1.70802E+00
1.35377E-02	8.85717E-02	1.01653E+00	-1.70189E+00
