jMRUI Data Textfile
 
Filename: GABA.txt
 
PointsInDataset: 2048
DatasetsInFile: 1
SamplingInterval: 5.00000E-01
ZeroOrderPhase: 0E0
BeginTime: 0E0
TransmitterFrequency: 1.27740E+08
MagneticField: 0E0
TypeOfNucleus: 0E0
NameOfPatient: 
DateOfExperiment: 
Spectrometer: Vespa-Simulation
AdditionalInfo: see 'readme' file for Vespa-Simulation output synopsis
 
  
Signal and FFT 
sig(real)	sig(imag)	fft(real)	fft(imag)
Signal 1 out of 1 in file
1.58517E+00	-5.54456E-01	3.26570E-01	-2.10945E+00
5.50207E-01	-1.44995E+00	3.28117E-01	-2.10144E+00
-6.73534E-01	-1.20427E+00	3.29655E-01	-2.09351E+00
-1.15604E+00	-2.19636E-01	3.31165E-01	-2.08567E+00
-7.37585E-01	6.03232E-01	3.32639E-01	-2.07787E+00
-8.36393E-03	7.19667E-01	3.34095E-01	-2.07011E+00
3.71358E-01	3.17132E-01	3.35550E-01	-2.06239E+00
2.64387E-01	-4.78735E-02	3.37011E-01	-2.05471E+00
2.65786E-02	-6.44431E-02	3.38482E-01	-2.04709E+00
1.58841E-02	1.04904E-01	3.39962E-01	-2.03952E+00
2.18615E-01	1.19665E-01	3.41446E-01	-2.03202E+00
3.38312E-01	-1.25715E-01	3.42925E-01	-2.02460E+00
1.62962E-01	-4.10389E-01	3.44386E-01	-2.01723E+00
-2.12002E-01	-4.46126E-01	3.45826E-01	-2.00992E+00
-4.95938E-01	-1.64917E-01	3.47254E-01	-2.00265E+00
-4.75867E-01	2.41262E-01	3.48683E-01	-1.99542E+00
-1.70874E-01	5.04861E-01	3.50119E-01	-1.98824E+00
2.23055E-01	4.77385E-01	3.51552E-01	-1.98113E+00
4.83420E-01	1.90681E-01	3.52974E-01	-1.97407E+00
4.75562E-01	-1.92872E-01	3.54384E-01	-1.96705E+00
2.03414E-01	-4.64328E-01	3.55785E-01	-1.96009E+00
-1.83993E-01	-4.63325E-01	3.57177E-01	-1.95317E+00
-4.50386E-01	-1.79589E-01	3.58562E-01	-1.94629E+00
-4.15383E-01	2.05072E-01	3.59948E-01	-1.93945E+00
-1.05964E-01	4.18780E-01	3.61342E-01	-1.93266E+00
2.35200E-01	3.12105E-01	3.62738E-01	-1.92593E+00
3.41019E-01	-1.37756E-03	3.64122E-01	-1.91926E+00
1.58781E-01	-2.37414E-01	3.65487E-01	-1.91263E+00
-1.02292E-01	-2.05725E-01	3.66836E-01	-1.90605E+00
-1.81720E-01	1.05307E-02	3.68173E-01	-1.89950E+00
-3.11296E-02	1.52287E-01	3.69505E-01	-1.89298E+00
1.46183E-01	6.43500E-02	3.70841E-01	-1.88649E+00
1.25390E-01	-1.39307E-01	3.72191E-01	-1.88004E+00
-8.70455E-02	-2.05528E-01	3.73550E-01	-1.87365E+00
-2.55329E-01	-2.79807E-02	3.74902E-01	-1.86732E+00
-1.72938E-01	2.24537E-01	3.76235E-01	-1.86104E+00
1.03174E-01	2.82554E-01	3.77551E-01	-1.85480E+00
3.01218E-01	6.72583E-02	3.78853E-01	-1.84859E+00
2.17946E-01	-2.17139E-01	3.80149E-01	-1.84240E+00
-6.64105E-02	-2.91897E-01	3.81449E-01	-1.83625E+00
-2.70850E-01	-9.10583E-02	3.82763E-01	-1.83014E+00
-2.03492E-01	1.75999E-01	3.84083E-01	-1.82408E+00
4.87963E-02	2.46598E-01	3.85391E-01	-1.81808E+00
2.23455E-01	7.10653E-02	3.86671E-01	-1.81214E+00
1.57460E-01	-1.52782E-01	3.87921E-01	-1.80622E+00
-5.76491E-02	-1.98137E-01	3.89150E-01	-1.80031E+00
-1.90824E-01	-3.94489E-02	3.90376E-01	-1.79441E+00
-1.17680E-01	1.41505E-01	3.91625E-01	-1.78852E+00
6.48953E-02	1.60431E-01	3.92912E-01	-1.78266E+00
1.60464E-01	1.73985E-02	3.94225E-01	-1.77687E+00
8.35262E-02	-1.23519E-01	3.95535E-01	-1.77115E+00
-6.58135E-02	-1.19893E-01	3.96829E-01	-1.76548E+00
-1.25317E-01	5.76319E-03	3.98111E-01	-1.75987E+00
-4.43563E-02	1.07659E-01	3.99365E-01	-1.75432E+00
7.59554E-02	8.06761E-02	4.00565E-01	-1.74882E+00
1.03122E-01	-3.49428E-02	4.01706E-01	-1.74331E+00
1.35286E-02	-1.09183E-01	4.02827E-01	-1.73778E+00
-9.27992E-02	-6.42611E-02	4.03968E-01	-1.73223E+00
-1.04526E-01	5.02672E-02	4.05147E-01	-1.72669E+00
-1.17554E-02	1.17555E-01	4.06359E-01	-1.72118E+00
9.26907E-02	7.39362E-02	4.07609E-01	-1.71570E+00
1.11557E-01	-3.49210E-02	4.08901E-01	-1.71029E+00
3.41535E-02	-1.07813E-01	4.10207E-01	-1.70497E+00
-6.42553E-02	-8.60308E-02	4.11478E-01	-1.69974E+00
-1.00124E-01	9.73992E-04	4.12691E-01	-1.69456E+00
-5.39819E-02	7.42674E-02	4.13854E-01	-1.68940E+00
2.45408E-02	7.92032E-02	4.14984E-01	-1.68426E+00
6.96256E-02	2.47641E-02	4.16087E-01	-1.67911E+00
5.41148E-02	-3.62594E-02	4.17179E-01	-1.67395E+00
2.29118E-03	-5.68873E-02	4.18291E-01	-1.66878E+00
-3.91820E-02	-3.02100E-02	4.19440E-01	-1.66363E+00
-4.07237E-02	1.34267E-02	4.20617E-01	-1.65852E+00
-9.11729E-03	3.60716E-02	4.21802E-01	-1.65346E+00
2.32410E-02	2.27333E-02	4.22987E-01	-1.64846E+00
2.74592E-02	-9.07129E-03	4.24154E-01	-1.64350E+00
2.73924E-03	-2.65657E-02	4.25296E-01	-1.63857E+00
-2.33838E-02	-1.21146E-02	4.26427E-01	-1.63365E+00
-2.10792E-02	1.88889E-02	4.27557E-01	-1.62875E+00
1.09066E-02	3.09963E-02	4.28689E-01	-1.62388E+00
3.96663E-02	4.32423E-03	4.29821E-01	-1.61904E+00
2.81903E-02	-4.02443E-02	4.30949E-01	-1.61424E+00
-2.40720E-02	-5.51797E-02	4.32070E-01	-1.60946E+00
-7.16238E-02	-1.24803E-02	4.33178E-01	-1.60472E+00
-6.08314E-02	6.10638E-02	4.34270E-01	-1.60000E+00
1.55136E-02	9.89619E-02	4.35352E-01	-1.59529E+00
1.00518E-01	5.39569E-02	4.36434E-01	-1.59060E+00
1.16436E-01	-5.15867E-02	4.37520E-01	-1.58592E+00
3.50760E-02	-1.34890E-01	4.38608E-01	-1.58128E+00
-8.89395E-02	-1.20254E-01	4.39694E-01	-1.57665E+00
-1.57181E-01	-7.70943E-03	4.40779E-01	-1.57206E+00
-1.09307E-01	1.19905E-01	4.41866E-01	-1.56748E+00
2.26867E-02	1.62152E-01	4.42948E-01	-1.56294E+00
1.37280E-01	8.48558E-02	4.44023E-01	-1.55842E+00
1.46640E-01	-4.98039E-02	4.45101E-01	-1.55392E+00
5.00379E-02	-1.34926E-01	4.46182E-01	-1.54945E+00
-6.68491E-02	-1.09623E-01	4.47256E-01	-1.54502E+00
-1.08055E-01	-9.96441E-03	4.48320E-01	-1.54061E+00
-5.28458E-02	6.66574E-02	4.49374E-01	-1.53623E+00
2.77396E-02	5.41495E-02	4.50414E-01	-1.53187E+00
4.24190E-02	-1.78639E-02	4.51435E-01	-1.52753E+00
-2.50747E-02	-5.30380E-02	4.52447E-01	-1.52319E+00
-9.16134E-02	1.00874E-02	4.53470E-01	-1.51885E+00
-5.53335E-02	1.21418E-01	4.54510E-01	-1.51453E+00
8.91605E-02	1.53257E-01	4.55554E-01	-1.51025E+00
2.19381E-01	2.73633E-02	4.56591E-01	-1.50600E+00
1.86990E-01	-1.84384E-01	4.57627E-01	-1.50177E+00
-3.01602E-02	-2.98381E-01	4.58665E-01	-1.49756E+00
-2.76551E-01	-1.82048E-01	4.59692E-01	-1.49340E+00
-3.38347E-01	1.05683E-01	4.60697E-01	-1.48925E+00
-1.38307E-01	3.41629E-01	4.61693E-01	-1.48510E+00
1.77878E-01	3.26993E-01	4.62697E-01	-1.48097E+00
3.58262E-01	6.86588E-02	4.63704E-01	-1.47687E+00
2.65649E-01	-2.21582E-01	4.64700E-01	-1.47279E+00
-3.67141E-03	-3.15944E-01	4.65694E-01	-1.46871E+00
-2.16659E-01	-1.70518E-01	4.66697E-01	-1.46466E+00
-2.20290E-01	5.29473E-02	4.67698E-01	-1.46065E+00
-6.78393E-02	1.56444E-01	4.68676E-01	-1.45665E+00
6.07802E-02	9.23361E-02	4.69647E-01	-1.45266E+00
5.15112E-02	-1.56145E-02	4.70631E-01	-1.44869E+00
-3.85802E-02	-2.39702E-02	4.71609E-01	-1.44474E+00
-6.28992E-02	7.34327E-02	4.72573E-01	-1.44081E+00
4.37982E-02	1.45770E-01	4.73549E-01	-1.43688E+00
1.88866E-01	7.33606E-02	4.74530E-01	-1.43299E+00
2.15220E-01	-1.17661E-01	4.75496E-01	-1.42913E+00
6.17896E-02	-2.72105E-01	4.76445E-01	-1.42528E+00
-1.72559E-01	-2.49855E-01	4.77395E-01	-1.42143E+00
-3.15898E-01	-5.01794E-02	4.78356E-01	-1.41760E+00
-2.65640E-01	1.94562E-01	4.79309E-01	-1.41380E+00
-5.58325E-02	3.29542E-01	4.80247E-01	-1.41001E+00
1.86745E-01	2.81113E-01	4.81196E-01	-1.40623E+00
3.31605E-01	8.15936E-02	4.82149E-01	-1.40248E+00
3.05301E-01	-1.66472E-01	4.83083E-01	-1.39875E+00
1.13510E-01	-3.37550E-01	4.84008E-01	-1.39503E+00
-1.54585E-01	-3.30585E-01	4.84941E-01	-1.39131E+00
-3.48523E-01	-1.28067E-01	4.85878E-01	-1.38762E+00
-3.34734E-01	1.61956E-01	4.86808E-01	-1.38395E+00
-1.05735E-01	3.47664E-01	4.87735E-01	-1.38029E+00
1.80232E-01	2.92223E-01	4.88671E-01	-1.37665E+00
3.06888E-01	4.44699E-02	4.89606E-01	-1.37304E+00
1.89761E-01	-1.82623E-01	4.90522E-01	-1.36946E+00
-3.44438E-02	-2.01891E-01	4.91422E-01	-1.36589E+00
-1.35430E-01	-3.83281E-02	4.92315E-01	-1.36232E+00
-2.84221E-02	9.21614E-02	4.93205E-01	-1.35876E+00
1.25436E-01	1.60853E-02	4.94089E-01	-1.35521E+00
8.87520E-02	-1.88552E-01	4.94977E-01	-1.35166E+00
-1.71063E-01	-2.50718E-01	4.95882E-01	-1.34812E+00
-3.98769E-01	-3.09187E-03	4.96800E-01	-1.34460E+00
-2.92985E-01	3.89621E-01	4.97720E-01	-1.34112E+00
1.53126E-01	5.43475E-01	4.98634E-01	-1.33766E+00
5.80533E-01	2.34562E-01	4.99539E-01	-1.33423E+00
5.78778E-01	-3.34984E-01	5.00425E-01	-1.33083E+00
9.54721E-02	-6.83485E-01	5.01285E-01	-1.32743E+00
-4.79177E-01	-4.95126E-01	5.02132E-01	-1.32403E+00
-6.61400E-01	7.17501E-02	5.02981E-01	-1.32063E+00
-3.23421E-01	5.28779E-01	5.03837E-01	-1.31723E+00
2.01593E-01	5.16909E-01	5.04697E-01	-1.31384E+00
4.56826E-01	1.24372E-01	5.05566E-01	-1.31046E+00
2.92990E-01	-2.42168E-01	5.06448E-01	-1.30709E+00
-3.54299E-02	-2.78577E-01	5.07339E-01	-1.30376E+00
-1.76624E-01	-5.65892E-02	5.08226E-01	-1.30045E+00
-4.60072E-02	1.10133E-01	5.09103E-01	-1.29716E+00
1.27966E-01	2.98523E-02	5.09973E-01	-1.29390E+00
9.22556E-02	-1.73290E-01	5.10831E-01	-1.29065E+00
-1.42910E-01	-2.23891E-01	5.11675E-01	-1.28742E+00
-3.23454E-01	-1.32431E-02	5.12504E-01	-1.28419E+00
-2.34352E-01	2.80347E-01	5.13330E-01	-1.28096E+00
7.29776E-02	3.81847E-01	5.14157E-01	-1.27774E+00
3.41319E-01	1.96763E-01	5.14983E-01	-1.27453E+00
3.64988E-01	-1.16056E-01	5.15810E-01	-1.27132E+00
1.61913E-01	-3.21136E-01	5.16641E-01	-1.26813E+00
-9.23392E-02	-3.16637E-01	5.17475E-01	-1.26494E+00
-2.50406E-01	-1.68166E-01	5.18311E-01	-1.26178E+00
-2.83959E-01	1.47695E-02	5.19145E-01	-1.25862E+00
-2.22621E-01	1.77606E-01	5.19983E-01	-1.25548E+00
-7.51716E-02	2.93256E-01	5.20825E-01	-1.25236E+00
1.43799E-01	2.98270E-01	5.21665E-01	-1.24926E+00
3.36887E-01	1.29167E-01	5.22499E-01	-1.24617E+00
3.48334E-01	-1.61630E-01	5.23327E-01	-1.24311E+00
1.17095E-01	-3.77478E-01	5.24147E-01	-1.24006E+00
-2.08819E-01	-3.30608E-01	5.24953E-01	-1.23703E+00
-3.67354E-01	-4.30546E-02	5.25739E-01	-1.23401E+00
-2.30191E-01	2.39118E-01	5.26513E-01	-1.23098E+00
5.51491E-02	2.73781E-01	5.27288E-01	-1.22794E+00
2.05606E-01	6.94603E-02	5.28073E-01	-1.22490E+00
9.78506E-02	-1.23088E-01	5.28872E-01	-1.22186E+00
-9.94225E-02	-8.50099E-02	5.29689E-01	-1.21884E+00
-1.15101E-01	1.22091E-01	5.30521E-01	-1.21585E+00
1.08230E-01	2.16386E-01	5.31351E-01	-1.21290E+00
3.24324E-01	1.64940E-02	5.32164E-01	-1.20997E+00
2.39503E-01	-3.25080E-01	5.32953E-01	-1.20706E+00
-1.48153E-01	-4.48721E-01	5.33720E-01	-1.20415E+00
