jMRUI Data Textfile
 
Filename: Glu.txt
 
PointsInDataset: 2048
DatasetsInFile: 1
SamplingInterval: 5.00000E-01
ZeroOrderPhase: 0E0
BeginTime: 0E0
TransmitterFrequency: 1.27740E+08
MagneticField: 0E0
TypeOfNucleus: 0E0
NameOfPatient: 
DateOfExperiment: 
Spectrometer: Vespa-Simulation
AdditionalInfo: see 'readme' file for Vespa-Simulation output synopsis
 
  
Signal and FFT 
sig(real)	sig(imag)	fft(real)	fft(imag)
Signal 1 out of 1 in file
2.70711E+00	-2.47222E-01	1.24855E+00	-3.61462E+00
1.47123E+00	-2.09375E+00	1.24774E+00	-3.59500E+00
-6.33097E-01	-2.16511E+00	1.24696E+00	-3.57561E+00
-1.77808E+00	-5.99153E-01	1.24622E+00	-3.55646E+00
-1.12069E+00	1.04168E+00	1.24550E+00	-3.53753E+00
5.00366E-01	1.26524E+00	1.24481E+00	-3.51882E+00
1.43759E+00	-5.00895E-03	1.24415E+00	-3.50032E+00
7.88497E-01	-1.45681E+00	1.24351E+00	-3.48203E+00
-8.31367E-01	-1.67617E+00	1.24289E+00	-3.46395E+00
-1.94506E+00	-4.35950E-01	1.24231E+00	-3.44607E+00
-1.59758E+00	1.18157E+00	1.24175E+00	-3.42838E+00
-1.59199E-01	1.84260E+00	1.24122E+00	-3.41090E+00
1.11884E+00	1.14605E+00	1.24070E+00	-3.39361E+00
1.27721E+00	-1.33300E-01	1.24019E+00	-3.37650E+00
4.32302E-01	-8.56146E-01	1.23971E+00	-3.35956E+00
-4.74334E-01	-5.44962E-01	1.23926E+00	-3.34280E+00
-6.09098E-01	3.03742E-01	1.23883E+00	-3.32622E+00
4.81241E-02	7.97407E-01	1.23842E+00	-3.30981E+00
8.09215E-01	4.82451E-01	1.23803E+00	-3.29358E+00
9.78608E-01	-3.29453E-01	1.23766E+00	-3.27751E+00
4.46845E-01	-9.43998E-01	1.23731E+00	-3.26161E+00
-3.14680E-01	-9.25222E-01	1.23697E+00	-3.24588E+00
-7.42970E-01	-4.01094E-01	1.23665E+00	-3.23030E+00
-6.47261E-01	1.57074E-01	1.23633E+00	-3.21486E+00
-2.65648E-01	3.82534E-01	1.23605E+00	-3.19958E+00
3.50104E-02	2.63588E-01	1.23578E+00	-3.18445E+00
7.62417E-02	4.32397E-02	1.23552E+00	-3.16947E+00
-6.04938E-02	-4.88935E-02	1.23528E+00	-3.15464E+00
-1.86799E-01	3.72132E-02	1.23505E+00	-3.13995E+00
-1.82697E-01	2.03453E-01	1.23482E+00	-3.12540E+00
-4.80355E-02	3.27436E-01	1.23461E+00	-3.11099E+00
1.49693E-01	3.39832E-01	1.23441E+00	-3.09670E+00
3.30775E-01	2.25895E-01	1.23424E+00	-3.08254E+00
4.18925E-01	1.17408E-02	1.23408E+00	-3.06852E+00
3.55905E-01	-2.27984E-01	1.23393E+00	-3.05463E+00
1.46811E-01	-3.77739E-01	1.23379E+00	-3.04088E+00
-1.06057E-01	-3.46636E-01	1.23365E+00	-3.02724E+00
-2.49359E-01	-1.55489E-01	1.23353E+00	-3.01373E+00
-1.98105E-01	5.06489E-02	1.23341E+00	-3.00033E+00
-2.33989E-02	1.09264E-01	1.23330E+00	-2.98705E+00
9.37185E-02	-1.36134E-02	1.23321E+00	-2.97388E+00
2.18440E-02	-1.80061E-01	1.23314E+00	-2.96083E+00
-1.91162E-01	-1.98220E-01	1.23308E+00	-2.94790E+00
-3.49769E-01	-2.83845E-03	1.23301E+00	-2.93509E+00
-2.86052E-01	2.72329E-01	1.23295E+00	-2.92239E+00
-1.86900E-02	4.06406E-01	1.23290E+00	-2.90979E+00
2.55896E-01	2.88585E-01	1.23285E+00	-2.89729E+00
3.35371E-01	1.77300E-02	1.23281E+00	-2.88489E+00
1.87436E-01	-1.87914E-01	1.23279E+00	-2.87258E+00
-3.11261E-02	-1.84819E-01	1.23278E+00	-2.86039E+00
-1.24066E-01	-2.23336E-02	1.23279E+00	-2.84830E+00
-3.02846E-02	1.17864E-01	1.23279E+00	-2.83632E+00
1.35139E-01	9.49945E-02	1.23281E+00	-2.82443E+00
2.00165E-01	-6.88769E-02	1.23283E+00	-2.81265E+00
9.48294E-02	-2.22954E-01	1.23284E+00	-2.80096E+00
-9.56170E-02	-2.32686E-01	1.23286E+00	-2.78936E+00
-2.19742E-01	-9.53322E-02	1.23289E+00	-2.77785E+00
-1.96230E-01	7.27080E-02	1.23292E+00	-2.76642E+00
-7.17824E-02	1.49494E-01	1.23295E+00	-2.75509E+00
3.90450E-02	1.08626E-01	1.23299E+00	-2.74383E+00
6.12629E-02	2.17102E-02	1.23304E+00	-2.73266E+00
1.24844E-02	-2.30698E-02	1.23311E+00	-2.72157E+00
-3.47043E-02	5.95460E-04	1.23318E+00	-2.71057E+00
-2.96359E-02	5.02505E-02	1.23326E+00	-2.69967E+00
1.73077E-02	7.02109E-02	1.23335E+00	-2.68885E+00
6.03226E-02	4.50690E-02	1.23343E+00	-2.67811E+00
6.95482E-02	2.04399E-03	1.23351E+00	-2.66746E+00
5.28486E-02	-2.75084E-02	1.23359E+00	-2.65689E+00
3.38101E-02	-3.89889E-02	1.23366E+00	-2.64637E+00
1.98091E-02	-4.71673E-02	1.23375E+00	-2.63593E+00
-1.29031E-03	-5.71062E-02	1.23385E+00	-2.62555E+00
-3.55877E-02	-5.28395E-02	1.23397E+00	-2.61524E+00
-6.38897E-02	-1.89881E-02	1.23410E+00	-2.60502E+00
-5.65845E-02	3.10771E-02	1.23424E+00	-2.59489E+00
-9.47352E-03	5.78171E-02	1.23438E+00	-2.58485E+00
4.08854E-02	3.30729E-02	1.23451E+00	-2.57488E+00
4.60337E-02	-2.49914E-02	1.23463E+00	-2.56497E+00
-5.16095E-03	-6.06386E-02	1.23474E+00	-2.55513E+00
-6.76554E-02	-3.16906E-02	1.23487E+00	-2.54534E+00
-7.71570E-02	4.46882E-02	1.23500E+00	-2.53562E+00
-1.24925E-02	1.00314E-01	1.23514E+00	-2.52596E+00
7.71946E-02	7.70012E-02	1.23529E+00	-2.51638E+00
1.11867E-01	-1.50504E-02	1.23544E+00	-2.50686E+00
5.44278E-02	-9.96288E-02	1.23559E+00	-2.49741E+00
-5.01648E-02	-1.00777E-01	1.23574E+00	-2.48802E+00
-1.10855E-01	-1.38718E-02	1.23589E+00	-2.47869E+00
-7.20958E-02	8.58954E-02	1.23605E+00	-2.46941E+00
3.35105E-02	1.08994E-01	1.23622E+00	-2.46020E+00
1.11984E-01	3.28429E-02	1.23639E+00	-2.45106E+00
9.18249E-02	-7.59509E-02	1.23657E+00	-2.44197E+00
-1.08254E-02	-1.20216E-01	1.23675E+00	-2.43295E+00
-1.05597E-01	-5.93869E-02	1.23693E+00	-2.42400E+00
-1.08314E-01	5.36878E-02	1.23710E+00	-2.41511E+00
-1.60261E-02	1.19512E-01	1.23726E+00	-2.40626E+00
9.04215E-02	8.01072E-02	1.23744E+00	-2.39746E+00
1.17922E-01	-3.01767E-02	1.23763E+00	-2.38873E+00
4.25481E-02	-1.15432E-01	1.23780E+00	-2.38004E+00
-7.04744E-02	-1.02130E-01	1.23799E+00	-2.37141E+00
-1.24275E-01	-2.16557E-03	1.23819E+00	-2.36284E+00
-7.38191E-02	9.87924E-02	1.23838E+00	-2.35433E+00
3.67435E-02	1.15587E-01	1.23856E+00	-2.34586E+00
1.13211E-01	3.57071E-02	1.23875E+00	-2.33744E+00
9.17973E-02	-7.15503E-02	1.23894E+00	-2.32907E+00
-7.70481E-03	-1.14852E-01	1.23913E+00	-2.32075E+00
-9.97391E-02	-5.79059E-02	1.23933E+00	-2.31248E+00
-1.05507E-01	5.05405E-02	1.23955E+00	-2.30426E+00
-1.91748E-02	1.18014E-01	1.23976E+00	-2.29611E+00
8.70343E-02	8.59643E-02	1.23997E+00	-2.28800E+00
1.22953E-01	-2.06185E-02	1.24017E+00	-2.27995E+00
5.62412E-02	-1.13029E-01	1.24037E+00	-2.27193E+00
-5.91176E-02	-1.12511E-01	1.24057E+00	-2.26396E+00
-1.26378E-01	-1.72270E-02	1.24077E+00	-2.25603E+00
-8.70769E-02	9.39177E-02	1.24098E+00	-2.24815E+00
2.77606E-02	1.26065E-01	1.24120E+00	-2.24031E+00
1.21088E-01	4.93168E-02	1.24142E+00	-2.23253E+00
1.11133E-01	-7.29333E-02	1.24163E+00	-2.22480E+00
3.13695E-03	-1.35285E-01	1.24183E+00	-2.21710E+00
-1.11483E-01	-8.07170E-02	1.24203E+00	-2.20944E+00
-1.31640E-01	4.70562E-02	1.24225E+00	-2.20181E+00
-3.55551E-02	1.37506E-01	1.24247E+00	-2.19423E+00
9.60664E-02	1.08278E-01	1.24270E+00	-2.18670E+00
1.46996E-01	-1.99924E-02	1.24292E+00	-2.17922E+00
6.76472E-02	-1.37091E-01	1.24316E+00	-2.17177E+00
-7.73131E-02	-1.37643E-01	1.24339E+00	-2.16438E+00
-1.61697E-01	-1.57854E-02	1.24361E+00	-2.15704E+00
-1.08314E-01	1.25344E-01	1.24382E+00	-2.14971E+00
3.99258E-02	1.61849E-01	1.24405E+00	-2.14243E+00
1.54364E-01	5.95332E-02	1.24428E+00	-2.13519E+00
1.33569E-01	-9.26920E-02	1.24450E+00	-2.12799E+00
-4.68552E-03	-1.59547E-01	1.24472E+00	-2.12082E+00
-1.36679E-01	-8.02423E-02	1.24496E+00	-2.11369E+00
-1.42134E-01	7.50606E-02	1.24519E+00	-2.10662E+00
-1.29796E-02	1.66014E-01	1.24541E+00	-2.09958E+00
1.37334E-01	1.07500E-01	1.24563E+00	-2.09256E+00
1.74073E-01	-5.29177E-02	1.24587E+00	-2.08557E+00
6.16866E-02	-1.76136E-01	1.24610E+00	-2.07864E+00
-1.04041E-01	-1.54979E-01	1.24632E+00	-2.07172E+00
-1.81187E-01	-9.05122E-03	1.24658E+00	-2.06484E+00
-1.07304E-01	1.33989E-01	1.24683E+00	-2.05802E+00
4.72601E-02	1.52582E-01	1.24707E+00	-2.05125E+00
1.44444E-01	3.77454E-02	1.24729E+00	-2.04450E+00
1.01519E-01	-1.02489E-01	1.24752E+00	-2.03777E+00
-3.83401E-02	-1.41513E-01	1.24774E+00	-2.03108E+00
-1.48095E-01	-4.52680E-02	1.24796E+00	-2.02441E+00
-1.30070E-01	1.01545E-01	1.24820E+00	-2.01776E+00
1.29559E-03	1.72886E-01	1.24846E+00	-2.01115E+00
1.36632E-01	1.10055E-01	1.24873E+00	-2.00460E+00
1.67985E-01	-3.27079E-02	1.24898E+00	-1.99810E+00
7.76366E-02	-1.39866E-01	1.24921E+00	-1.99164E+00
-5.39756E-02	-1.32880E-01	1.24943E+00	-1.98519E+00
-1.20843E-01	-3.03814E-02	1.24964E+00	-1.97876E+00
-7.81747E-02	7.50526E-02	1.24986E+00	-1.97235E+00
2.73999E-02	9.68000E-02	1.25009E+00	-1.96596E+00
1.02176E-01	2.20305E-02	1.25033E+00	-1.95959E+00
8.22733E-02	-8.36360E-02	1.25059E+00	-1.95327E+00
-1.86193E-02	-1.31836E-01	1.25085E+00	-1.94698E+00
-1.23378E-01	-8.01860E-02	1.25112E+00	-1.94073E+00
-1.51741E-01	3.72892E-02	1.25139E+00	-1.93453E+00
-8.01151E-02	1.37087E-01	1.25165E+00	-1.92837E+00
4.15677E-02	1.48370E-01	1.25190E+00	-1.92225E+00
1.26740E-01	6.52516E-02	1.25212E+00	-1.91616E+00
1.16292E-01	-4.81970E-02	1.25233E+00	-1.91007E+00
2.40239E-02	-1.05155E-01	1.25253E+00	-1.90399E+00
-7.17623E-02	-6.29312E-02	1.25274E+00	-1.89792E+00
-8.80297E-02	4.07588E-02	1.25299E+00	-1.89186E+00
-5.18369E-03	1.13856E-01	1.25326E+00	-1.88585E+00
1.11398E-01	8.33867E-02	1.25354E+00	-1.87989E+00
1.59650E-01	-4.02636E-02	1.25380E+00	-1.87397E+00
8.52670E-02	-1.64114E-01	1.25405E+00	-1.86808E+00
-6.67563E-02	-1.84807E-01	1.25429E+00	-1.86222E+00
-1.81966E-01	-7.65616E-02	1.25452E+00	-1.85637E+00
-1.69211E-01	8.08492E-02	1.25476E+00	-1.85054E+00
-4.00339E-02	1.63937E-01	1.25501E+00	-1.84474E+00
9.64473E-02	1.09435E-01	1.25526E+00	-1.83896E+00
1.24382E-01	-2.88469E-02	1.25551E+00	-1.83322E+00
2.21378E-02	-1.23368E-01	1.25575E+00	-1.82751E+00
-1.15587E-01	-8.31425E-02	1.25599E+00	-1.82182E+00
-1.57858E-01	6.40228E-02	1.25623E+00	-1.81615E+00
-5.27132E-02	1.91519E-01	1.25647E+00	-1.81050E+00
1.23455E-01	1.82037E-01	1.25671E+00	-1.80487E+00
2.27962E-01	3.08783E-02	1.25695E+00	-1.79927E+00
1.73484E-01	-1.46563E-01	1.25719E+00	-1.79369E+00
3.80856E-03	-2.11522E-01	1.25744E+00	-1.78813E+00
-1.42767E-01	-1.19593E-01	1.25769E+00	-1.78260E+00
-1.51360E-01	4.22845E-02	1.25793E+00	-1.77710E+00
-2.78079E-02	1.31745E-01	1.25818E+00	-1.77161E+00
1.08421E-01	7.38080E-02	1.25843E+00	-1.76615E+00
1.28838E-01	-7.53700E-02	1.25869E+00	-1.76072E+00
7.40766E-03	-1.78006E-01	1.25894E+00	-1.75531E+00
-1.56717E-01	-1.33986E-01	1.25919E+00	-1.74993E+00
-2.23622E-01	3.26408E-02	1.25944E+00	-1.74457E+00
