jMRUI Data Textfile
 
Filename: GPC.txt
 
PointsInDataset: 2048
DatasetsInFile: 1
SamplingInterval: 5.00000E-01
ZeroOrderPhase: 0E0
BeginTime: 0E0
TransmitterFrequency: 1.27740E+08
MagneticField: 0E0
TypeOfNucleus: 0E0
NameOfPatient: 
DateOfExperiment: 
Spectrometer: Vespa-Simulation
AdditionalInfo: see 'readme' file for Vespa-Simulation output synopsis
 
  
Signal and FFT 
sig(real)	sig(imag)	fft(real)	fft(imag)
Signal 1 out of 1 in file
9.00000E+00	-5.44360E-17	4.78564E+00	-1.46161E+01
7.36111E+00	-5.00522E+00	4.78276E+00	-1.45367E+01
3.23709E+00	-8.18755E+00	4.77997E+00	-1.44581E+01
-1.90576E+00	-8.49686E+00	4.77727E+00	-1.43803E+01
-6.28413E+00	-5.88973E+00	4.77463E+00	-1.43033E+01
-8.41528E+00	-1.32241E+00	4.77200E+00	-1.42271E+01
-7.61831E+00	3.59844E+00	4.76937E+00	-1.41516E+01
-4.22980E+00	7.17998E+00	4.76678E+00	-1.40768E+01
5.33483E-01	8.22486E+00	4.76422E+00	-1.40027E+01
5.01045E+00	6.43045E+00	4.76174E+00	-1.39293E+01
7.67425E+00	2.47298E+00	4.75934E+00	-1.38565E+01
7.65209E+00	-2.24527E+00	4.75697E+00	-1.37846E+01
5.00998E+00	-6.09201E+00	4.75462E+00	-1.37133E+01
7.09688E-01	-7.76889E+00	4.75228E+00	-1.36427E+01
-3.74010E+00	-6.74886E+00	4.74994E+00	-1.35727E+01
-6.81230E+00	-3.43993E+00	4.74762E+00	-1.35034E+01
-7.48485E+00	9.75071E-01	4.74530E+00	-1.34347E+01
-5.57960E+00	4.96010E+00	4.74304E+00	-1.33665E+01
-1.80512E+00	7.15987E+00	4.74085E+00	-1.32990E+01
2.50545E+00	6.85996E+00	4.73872E+00	-1.32321E+01
5.86428E+00	4.21740E+00	4.73662E+00	-1.31658E+01
7.14184E+00	1.88082E-01	4.73456E+00	-1.31001E+01
5.94592E+00	-3.81800E+00	4.73249E+00	-1.30351E+01
2.73985E+00	-6.42948E+00	4.73043E+00	-1.29705E+01
-1.33474E+00	-6.78241E+00	4.72841E+00	-1.29066E+01
-4.86362E+00	-4.80504E+00	4.72646E+00	-1.28431E+01
-6.65022E+00	-1.22522E+00	4.72457E+00	-1.27803E+01
-6.12061E+00	2.69631E+00	4.72272E+00	-1.27180E+01
-3.50654E+00	5.60921E+00	4.72088E+00	-1.26563E+01
2.51433E-01	6.53789E+00	4.71904E+00	-1.25952E+01
3.84160E+00	5.20751E+00	4.71719E+00	-1.25346E+01
6.03813E+00	2.12278E+00	4.71533E+00	-1.24745E+01
6.11914E+00	-1.62184E+00	4.71343E+00	-1.24149E+01
4.10292E+00	-4.72954E+00	4.71150E+00	-1.23558E+01
7.25476E-01	-6.15008E+00	4.70964E+00	-1.22970E+01
-2.82687E+00	-5.43364E+00	4.70788E+00	-1.22388E+01
-5.33392E+00	-2.87209E+00	4.70621E+00	-1.21810E+01
-5.95989E+00	6.17337E-01	4.70457E+00	-1.21239E+01
-4.53131E+00	3.81940E+00	4.70285E+00	-1.20672E+01
-1.58202E+00	5.64392E+00	4.70106E+00	-1.20110E+01
1.84481E+00	5.49600E+00	4.69929E+00	-1.19550E+01
4.56542E+00	3.46919E+00	4.69765E+00	-1.18995E+01
5.66339E+00	2.98500E-01	4.69614E+00	-1.18444E+01
4.79808E+00	-2.90550E+00	4.69470E+00	-1.17899E+01
2.30854E+00	-5.04478E+00	4.69329E+00	-1.17359E+01
-9.17464E-01	-5.40999E+00	4.69183E+00	-1.16824E+01
-3.75905E+00	-3.91463E+00	4.69028E+00	-1.16294E+01
-5.25159E+00	-1.11127E+00	4.68865E+00	-1.15767E+01
-4.91328E+00	2.01172E+00	4.68702E+00	-1.15243E+01
-2.89982E+00	4.37782E+00	4.68547E+00	-1.14723E+01
6.29293E-02	5.19332E+00	4.68402E+00	-1.14207E+01
2.93963E+00	4.21264E+00	4.68262E+00	-1.13695E+01
4.74714E+00	1.81066E+00	4.68124E+00	-1.13187E+01
4.88967E+00	-1.15908E+00	4.67983E+00	-1.12684E+01
3.35464E+00	-3.66735E+00	4.67838E+00	-1.12184E+01
7.04251E-01	-4.86516E+00	4.67692E+00	-1.11688E+01
-2.12971E+00	-4.37086E+00	4.67551E+00	-1.11194E+01
-4.17267E+00	-2.39055E+00	4.67419E+00	-1.10704E+01
-4.74230E+00	3.65298E-01	4.67299E+00	-1.10218E+01
-3.67556E+00	2.93617E+00	4.67190E+00	-1.09736E+01
-1.37337E+00	4.44559E+00	4.67084E+00	-1.09259E+01
1.34910E+00	4.39983E+00	4.66973E+00	-1.08786E+01
3.55031E+00	2.84836E+00	4.66852E+00	-1.08318E+01
4.48788E+00	3.55194E-01	4.66718E+00	-1.07853E+01
3.86817E+00	-2.20538E+00	4.66578E+00	-1.07390E+01
1.93737E+00	-3.95497E+00	4.66440E+00	-1.06929E+01
-6.14955E-01	-4.31221E+00	4.66311E+00	-1.06471E+01
-2.90117E+00	-3.18494E+00	4.66193E+00	-1.06017E+01
-4.14413E+00	-9.91496E-01	4.66078E+00	-1.05567E+01
-3.94093E+00	1.49367E+00	4.65958E+00	-1.05120E+01
-2.39258E+00	3.41338E+00	4.65831E+00	-1.04676E+01
-5.85643E-02	4.12241E+00	4.65701E+00	-1.04235E+01
2.24465E+00	3.40434E+00	4.65572E+00	-1.03795E+01
3.72918E+00	1.53606E+00	4.65459E+00	-1.03356E+01
3.90436E+00	-8.17614E-01	4.65371E+00	-1.02921E+01
2.73865E+00	-2.84010E+00	4.65309E+00	-1.02490E+01
6.60549E-01	-3.84597E+00	4.65259E+00	-1.02065E+01
-1.59864E+00	-3.51296E+00	4.65201E+00	-1.01647E+01
-3.26123E+00	-1.98417E+00	4.65112E+00	-1.01234E+01
-3.77083E+00	1.90852E-01	4.64980E+00	-1.00824E+01
-2.97807E+00	2.25313E+00	4.64812E+00	-1.00413E+01
-1.18270E+00	3.49906E+00	4.64638E+00	-1.00001E+01
9.78642E-01	3.51962E+00	4.64495E+00	-9.95875E+00
2.75777E+00	2.33450E+00	4.64392E+00	-9.91768E+00
3.55388E+00	3.75672E-01	4.64302E+00	-9.87710E+00
3.11564E+00	-1.66920E+00	4.64205E+00	-9.83676E+00
1.61996E+00	-3.09797E+00	4.64129E+00	-9.79650E+00
-3.97850E-01	-3.43476E+00	4.64094E+00	-9.75663E+00
-2.23561E+00	-2.58802E+00	4.64078E+00	-9.71747E+00
-3.26780E+00	-8.73417E-01	4.64046E+00	-9.67903E+00
-3.15847E+00	1.10299E+00	4.63973E+00	-9.64108E+00
-1.96996E+00	2.65864E+00	4.63856E+00	-9.60331E+00
-1.32646E-01	3.27006E+00	4.63709E+00	-9.56549E+00
1.71013E+00	2.74835E+00	4.63560E+00	-9.52752E+00
2.92714E+00	1.29687E+00	4.63429E+00	-9.48951E+00
3.11535E+00	-5.67193E-01	4.63327E+00	-9.45162E+00
2.23259E+00	-2.19648E+00	4.63250E+00	-9.41403E+00
6.04480E-01	-3.03813E+00	4.63187E+00	-9.37684E+00
-1.19515E+00	-2.82109E+00	4.63126E+00	-9.34007E+00
-2.54643E+00	-1.64269E+00	4.63055E+00	-9.30362E+00
-2.99629E+00	7.26248E-02	4.62977E+00	-9.26740E+00
-2.41026E+00	1.72576E+00	4.62898E+00	-9.23136E+00
-1.01166E+00	2.75191E+00	4.62821E+00	-9.19553E+00
7.03017E-01	2.81341E+00	4.62748E+00	-9.15995E+00
2.13965E+00	1.91010E+00	4.62676E+00	-9.12462E+00
2.81229E+00	3.72399E-01	4.62603E+00	-9.08957E+00
2.50727E+00	-1.25944E+00	4.62524E+00	-9.05477E+00
1.35026E+00	-2.42449E+00	4.62438E+00	-9.02017E+00
-2.43987E-01	-2.73392E+00	4.62346E+00	-8.98573E+00
-1.71994E+00	-2.10042E+00	4.62252E+00	-8.95141E+00
-2.57487E+00	-7.61398E-01	4.62163E+00	-8.91720E+00
-2.52942E+00	8.09244E-01	4.62081E+00	-8.88316E+00
-1.61875E+00	2.06859E+00	4.62008E+00	-8.84931E+00
-1.73615E-01	2.59215E+00	4.61942E+00	-8.81571E+00
1.29960E+00	2.21667E+00	4.61879E+00	-8.78237E+00
2.29572E+00	1.09024E+00	4.61815E+00	-8.74926E+00
2.48400E+00	-3.84968E-01	4.61749E+00	-8.71636E+00
1.81756E+00	-1.69632E+00	4.61684E+00	-8.68366E+00
5.43185E-01	-2.39824E+00	4.61621E+00	-8.65115E+00
-8.89488E-01	-2.26360E+00	4.61559E+00	-8.61887E+00
-1.98635E+00	-1.35677E+00	4.61494E+00	-8.58681E+00
-2.37918E+00	-5.00235E-03	4.61427E+00	-8.55493E+00
-1.94871E+00	1.31907E+00	4.61358E+00	-8.52321E+00
-8.60255E-01	2.16262E+00	4.61291E+00	-8.49166E+00
4.99061E-01	2.24724E+00	4.61224E+00	-8.46031E+00
1.65796E+00	1.56046E+00	4.61155E+00	-8.42913E+00
2.22388E+00	3.54237E-01	4.61087E+00	-8.39810E+00
2.01591E+00	-9.47063E-01	4.61020E+00	-8.36726E+00
1.12211E+00	-1.89573E+00	4.60950E+00	-8.33658E+00
-1.36404E-01	-2.17457E+00	4.60879E+00	-8.30600E+00
-1.32093E+00	-1.70272E+00	4.60816E+00	-8.27551E+00
-2.02734E+00	-6.58022E-01	4.60769E+00	-8.24523E+00
-2.02411E+00	5.89292E-01	4.60727E+00	-8.21528E+00
-1.32778E+00	1.60767E+00	4.60675E+00	-8.18561E+00
-1.91898E-01	2.05334E+00	4.60609E+00	-8.15610E+00
9.84996E-01	1.78615E+00	4.60534E+00	-8.12664E+00
1.79898E+00	9.13087E-01	4.60466E+00	-8.09720E+00
1.97920E+00	-2.53562E-01	4.60413E+00	-8.06790E+00
1.47776E+00	-1.30810E+00	4.60367E+00	-8.03889E+00
4.81170E-01	-1.89174E+00	4.60316E+00	-8.01013E+00
-6.58525E-01	-1.81484E+00	4.60255E+00	-7.98153E+00
-1.54792E+00	-1.11812E+00	4.60190E+00	-7.95302E+00
-1.88787E+00	-5.36503E-02	4.60125E+00	-7.92461E+00
-1.57392E+00	1.00604E+00	4.60063E+00	-7.89630E+00
-7.27899E-01	1.69812E+00	4.60006E+00	-7.86810E+00
3.49048E-01	1.79370E+00	4.59957E+00	-7.84005E+00
1.28304E+00	1.27294E+00	4.59913E+00	-7.81220E+00
1.75733E+00	3.27588E-01	4.59870E+00	-7.78455E+00
1.61950E+00	-7.09390E-01	4.59825E+00	-7.75710E+00
9.30063E-01	-1.48088E+00	4.59776E+00	-7.72979E+00
-6.28816E-02	-1.72845E+00	4.59726E+00	-7.70262E+00
-1.01262E+00	-1.37878E+00	4.59674E+00	-7.67557E+00
-1.59502E+00	-5.64544E-01	4.59624E+00	-7.64862E+00
-1.61852E+00	4.25315E-01	4.59579E+00	-7.62180E+00
-1.08725E+00	1.24799E+00	4.59539E+00	-7.59516E+00
-1.95201E-01	1.62539E+00	4.59498E+00	-7.56872E+00
7.44295E-01	1.43796E+00	4.59452E+00	-7.54243E+00
1.40847E+00	7.62175E-01	4.59404E+00	-7.51625E+00
1.57586E+00	-1.59927E-01	4.59356E+00	-7.49020E+00
1.20001E+00	-1.00714E+00	4.59307E+00	-7.46427E+00
4.21370E-01	-1.49111E+00	4.59260E+00	-7.43844E+00
-4.84628E-01	-1.45391E+00	4.59217E+00	-7.41274E+00
-1.20496E+00	-9.19630E-01	4.59177E+00	-7.38721E+00
-1.49698E+00	-8.20366E-02	4.59136E+00	-7.36185E+00
-1.27000E+00	7.65432E-01	4.59093E+00	-7.33665E+00
-6.13038E-01	1.33234E+00	4.59046E+00	-7.31159E+00
2.39488E-01	1.43067E+00	4.58993E+00	-7.28667E+00
9.91530E-01	1.03695E+00	4.58933E+00	-7.26183E+00
1.38766E+00	2.96688E-01	4.58871E+00	-7.23702E+00
1.29996E+00	-5.29075E-01	4.58814E+00	-7.21226E+00
7.68996E-01	-1.15569E+00	4.58762E+00	-7.18759E+00
-1.37682E-02	-1.37291E+00	4.58715E+00	-7.16305E+00
-7.74792E-01	-1.11524E+00	4.58670E+00	-7.13864E+00
-1.25390E+00	-4.81329E-01	4.58627E+00	-7.11434E+00
-1.29325E+00	3.03671E-01	4.58587E+00	-7.09015E+00
-8.88863E-01	9.67602E-01	4.58551E+00	-7.06610E+00
-1.88876E-01	1.28573E+00	4.58516E+00	-7.04219E+00
5.60568E-01	1.15664E+00	4.58484E+00	-7.01842E+00
1.10174E+00	6.34256E-01	4.58452E+00	-6.99481E+00
1.25385E+00	-9.39670E-02	4.58416E+00	-6.97137E+00
9.73259E-01	-7.74171E-01	4.58372E+00	-6.94804E+00
3.65543E-01	-1.17444E+00	4.58322E+00	-6.92474E+00
-3.54179E-01	-1.16387E+00	4.58278E+00	-6.90144E+00
-9.36956E-01	-7.54949E-01	4.58246E+00	-6.87824E+00
-1.18619E+00	-9.63912E-02	4.58222E+00	-6.85523E+00
-1.02379E+00	5.80852E-01	4.58197E+00	-6.83243E+00
-5.14319E-01	1.04445E+00	4.58167E+00	-6.80980E+00
1.60201E-01	1.14029E+00	4.58130E+00	-6.78730E+00
7.65141E-01	8.43586E-01	4.58085E+00	-6.76489E+00
1.09496E+00	2.64440E-01	4.58035E+00	-6.74253E+00
1.04263E+00	-3.92667E-01	4.57984E+00	-6.72021E+00
