jMRUI Data Textfile
 
Filename: GSH.txt
 
PointsInDataset: 2048
DatasetsInFile: 1
SamplingInterval: 5.00000E-01
ZeroOrderPhase: 0E0
BeginTime: 0E0
TransmitterFrequency: 1.27740E+08
MagneticField: 0E0
TypeOfNucleus: 0E0
NameOfPatient: 
DateOfExperiment: 
Spectrometer: Vespa-Simulation
AdditionalInfo: see 'readme' file for Vespa-Simulation output synopsis
 
  
Signal and FFT 
sig(real)	sig(imag)	fft(real)	fft(imag)
Signal 1 out of 1 in file
6.78313E+00	-1.58566E-01	7.75407E+00	-1.76818E+01
5.12811E+00	-2.12126E+00	7.33057E+00	-1.73080E+01
1.72142E+00	-3.34041E+00	6.96364E+00	-1.69473E+01
-1.21135E+00	-3.57564E+00	6.64307E+00	-1.65994E+01
-2.12608E+00	-2.94170E+00	6.36164E+00	-1.62645E+01
-1.20017E+00	-1.81121E+00	6.11364E+00	-1.59426E+01
8.41264E-02	-6.63194E-01	5.89430E+00	-1.56337E+01
3.30436E-01	9.00950E-02	5.69959E+00	-1.53377E+01
-6.47696E-01	2.74008E-01	5.52610E+00	-1.50542E+01
-1.86222E+00	5.02165E-02	5.37097E+00	-1.47826E+01
-2.17051E+00	-1.54688E-01	5.23179E+00	-1.45226E+01
-1.29049E+00	8.58751E-02	5.10649E+00	-1.42735E+01
6.39683E-02	8.76891E-01	4.99331E+00	-1.40346E+01
9.42312E-01	1.86357E+00	4.89075E+00	-1.38055E+01
1.03701E+00	2.42708E+00	4.79755E+00	-1.35856E+01
8.74220E-01	2.11063E+00	4.71261E+00	-1.33743E+01
1.19447E+00	9.59579E-01	4.63499E+00	-1.31711E+01
2.14782E+00	-5.02886E-01	4.56388E+00	-1.29754E+01
3.06602E+00	-1.65493E+00	4.49858E+00	-1.27870E+01
3.01972E+00	-2.19905E+00	4.43848E+00	-1.26052E+01
1.65419E+00	-2.27906E+00	4.38303E+00	-1.24298E+01
-4.39882E-01	-2.21582E+00	4.33177E+00	-1.22604E+01
-2.14074E+00	-2.13257E+00	4.28428E+00	-1.20966E+01
-2.63434E+00	-1.83789E+00	4.24022E+00	-1.19380E+01
-1.97612E+00	-1.08218E+00	4.19925E+00	-1.17845E+01
-9.43016E-01	6.90223E-02	4.16108E+00	-1.16357E+01
-3.53253E-01	1.13807E+00	4.12548E+00	-1.14913E+01
-4.47120E-01	1.56237E+00	4.09223E+00	-1.13512E+01
-8.12964E-01	1.18181E+00	4.06113E+00	-1.12150E+01
-8.46299E-01	4.32086E-01	4.03201E+00	-1.10826E+01
-2.95598E-01	2.16836E-02	4.00472E+00	-1.09539E+01
5.67738E-01	3.33172E-01	3.97906E+00	-1.08287E+01
1.24502E+00	1.06534E+00	3.95488E+00	-1.07067E+01
1.45408E+00	1.45224E+00	3.93208E+00	-1.05878E+01
1.31409E+00	9.00588E-01	3.91057E+00	-1.04718E+01
1.13819E+00	-4.87423E-01	3.89027E+00	-1.03586E+01
1.06935E+00	-1.95495E+00	3.87110E+00	-1.02481E+01
9.22731E-01	-2.66508E+00	3.85299E+00	-1.01401E+01
3.87521E-01	-2.32614E+00	3.83588E+00	-1.00347E+01
-6.04865E-01	-1.35250E+00	3.81965E+00	-9.93157E+00
-1.70142E+00	-4.56648E-01	3.80422E+00	-9.83075E+00
-2.32974E+00	-5.47132E-02	3.78954E+00	-9.73208E+00
-2.13098E+00	-1.38323E-03	3.77557E+00	-9.63545E+00
-1.25838E+00	1.51931E-01	3.76227E+00	-9.54076E+00
-2.78155E-01	6.54889E-01	3.74964E+00	-9.44795E+00
2.56815E-01	1.29137E+00	3.73763E+00	-9.35698E+00
2.13236E-01	1.58414E+00	3.72617E+00	-9.26779E+00
-6.57852E-02	1.26150E+00	3.71522E+00	-9.18027E+00
-8.84491E-02	5.36998E-01	3.70479E+00	-9.09435E+00
3.57745E-01	-6.48358E-02	3.69486E+00	-9.01001E+00
1.03459E+00	-1.78248E-01	3.68538E+00	-8.92720E+00
1.46633E+00	7.29804E-02	3.67630E+00	-8.84588E+00
1.33849E+00	1.93236E-01	3.66760E+00	-8.76599E+00
7.38063E-01	-2.17625E-01	3.65920E+00	-8.68747E+00
4.54477E-02	-1.06665E+00	3.65109E+00	-8.61022E+00
-4.03014E-01	-1.80081E+00	3.64331E+00	-8.53414E+00
-5.72603E-01	-1.85120E+00	3.63592E+00	-8.45922E+00
-6.88057E-01	-1.10601E+00	3.62891E+00	-8.38550E+00
-9.52672E-01	-6.32393E-03	3.62221E+00	-8.31301E+00
-1.30413E+00	8.10255E-01	3.61575E+00	-8.24169E+00
-1.44241E+00	1.00530E+00	3.60946E+00	-8.17148E+00
-1.10830E+00	7.55232E-01	3.60335E+00	-8.10227E+00
-3.55469E-01	5.25267E-01	3.59742E+00	-8.03401E+00
4.42851E-01	6.26025E-01	3.59170E+00	-7.96665E+00
8.73903E-01	9.49039E-01	3.58624E+00	-7.90017E+00
8.13153E-01	1.09887E+00	3.58104E+00	-7.83459E+00
5.10863E-01	7.79984E-01	3.57607E+00	-7.76992E+00
3.58043E-01	8.06589E-02	3.57131E+00	-7.70616E+00
5.36317E-01	-5.95796E-01	3.56671E+00	-7.64327E+00
8.59144E-01	-8.78131E-01	3.56225E+00	-7.58122E+00
9.43193E-01	-7.34533E-01	3.55790E+00	-7.51995E+00
5.56889E-01	-4.68997E-01	3.55368E+00	-7.45941E+00
-1.62639E-01	-4.21505E-01	3.54961E+00	-7.39959E+00
-8.13728E-01	-6.49026E-01	3.54569E+00	-7.34047E+00
-1.05964E+00	-8.73677E-01	3.54193E+00	-7.28205E+00
-8.91069E-01	-7.39958E-01	3.53832E+00	-7.22433E+00
-5.94705E-01	-1.48081E-01	3.53485E+00	-7.16730E+00
-4.67599E-01	6.32372E-01	3.53147E+00	-7.11094E+00
-5.42695E-01	1.16616E+00	3.52817E+00	-7.05522E+00
-5.74910E-01	1.19441E+00	3.52495E+00	-7.00009E+00
-2.95514E-01	8.21410E-01	3.52183E+00	-6.94552E+00
3.03344E-01	3.96483E-01	3.51883E+00	-6.89152E+00
9.19806E-01	2.06605E-01	3.51595E+00	-6.83808E+00
1.18130E+00	2.50849E-01	3.51318E+00	-6.78519E+00
9.59998E-01	2.81949E-01	3.51050E+00	-6.73286E+00
4.81119E-01	6.11276E-02	3.50790E+00	-6.68107E+00
1.24379E-01	-4.09112E-01	3.50537E+00	-6.62978E+00
9.37344E-02	-8.76512E-01	3.50292E+00	-6.57900E+00
2.49748E-01	-1.05206E+00	3.50054E+00	-6.52869E+00
2.54331E-01	-8.49236E-01	3.49822E+00	-6.47886E+00
-1.02536E-01	-4.41920E-01	3.49598E+00	-6.42948E+00
-6.87972E-01	-1.01760E-01	3.49381E+00	-6.38053E+00
-1.11883E+00	3.10389E-02	3.49171E+00	-6.33203E+00
-1.08340E+00	4.09581E-02	3.48968E+00	-6.28395E+00
-6.09378E-01	1.23519E-01	3.48771E+00	-6.23629E+00
-4.15085E-02	3.79796E-01	3.48580E+00	-6.18903E+00
2.51383E-01	7.08886E-01	3.48395E+00	-6.14217E+00
1.82372E-01	8.91867E-01	3.48216E+00	-6.09569E+00
-1.35912E-03	7.84806E-01	3.48042E+00	-6.04958E+00
3.90812E-02	4.44060E-01	3.47876E+00	-6.00383E+00
4.15200E-01	7.37095E-02	3.47717E+00	-5.95846E+00
8.97807E-01	-1.52037E-01	3.47563E+00	-5.91346E+00
1.10664E+00	-2.27622E-01	3.47411E+00	-5.86883E+00
8.34163E-01	-2.91971E-01	3.47261E+00	-5.82453E+00
2.21774E-01	-4.67890E-01	3.47114E+00	-5.78053E+00
-3.58278E-01	-7.17919E-01	3.46970E+00	-5.73684E+00
-6.04335E-01	-8.54821E-01	3.46831E+00	-5.69342E+00
-5.07283E-01	-7.04643E-01	3.46699E+00	-5.65028E+00
-3.12819E-01	-2.78103E-01	3.46575E+00	-5.60745E+00
-2.76382E-01	2.08579E-01	3.46455E+00	-5.56494E+00
-4.37271E-01	4.93191E-01	3.46337E+00	-5.52273E+00
-6.04844E-01	4.76027E-01	3.46219E+00	-5.48078E+00
-5.50923E-01	2.96289E-01	3.46103E+00	-5.43907E+00
-2.23043E-01	2.04513E-01	3.45992E+00	-5.39760E+00
2.10717E-01	3.36661E-01	3.45887E+00	-5.35634E+00
5.11753E-01	5.85854E-01	3.45790E+00	-5.31533E+00
5.68959E-01	6.88654E-01	3.45700E+00	-5.27461E+00
4.67824E-01	4.57144E-01	3.45610E+00	-5.23416E+00
3.82661E-01	-4.29005E-02	3.45520E+00	-5.19396E+00
4.05250E-01	-5.27648E-01	3.45431E+00	-5.15396E+00
4.68663E-01	-7.21401E-01	3.45342E+00	-5.11416E+00
4.25180E-01	-5.81461E-01	3.45256E+00	-5.07453E+00
1.93741E-01	-3.24206E-01	3.45175E+00	-5.03507E+00
-1.61915E-01	-2.24700E-01	3.45101E+00	-4.99581E+00
-4.86333E-01	-3.62290E-01	3.45031E+00	-4.95678E+00
-6.54759E-01	-5.39785E-01	3.44962E+00	-4.91797E+00
-6.49268E-01	-4.57945E-01	3.44893E+00	-4.87932E+00
-5.32489E-01	-9.55240E-04	3.44825E+00	-4.84084E+00
-3.66212E-01	6.19626E-01	3.44758E+00	-4.80251E+00
-1.66403E-01	1.00371E+00	3.44694E+00	-4.76430E+00
6.70539E-02	8.82593E-01	3.44636E+00	-4.72622E+00
2.94376E-01	3.51755E-01	3.44585E+00	-4.68829E+00
4.32850E-01	-1.89858E-01	3.44541E+00	-4.65055E+00
4.24500E-01	-3.56707E-01	3.44500E+00	-4.61300E+00
3.07925E-01	-8.99000E-02	3.44459E+00	-4.57563E+00
2.08759E-01	2.97704E-01	3.44417E+00	-4.53843E+00
2.36911E-01	3.86715E-01	3.44370E+00	-4.50135E+00
3.75919E-01	6.21002E-03	3.44321E+00	-4.46434E+00
4.72680E-01	-6.19244E-01	3.44275E+00	-4.42740E+00
3.53802E-01	-1.05128E+00	3.44234E+00	-4.39053E+00
-2.05765E-02	-9.91076E-01	3.44199E+00	-4.35378E+00
-4.98009E-01	-5.06012E-01	3.44167E+00	-4.31715E+00
-8.27901E-01	5.15365E-02	3.44137E+00	-4.28062E+00
-8.38236E-01	3.47236E-01	3.44107E+00	-4.24419E+00
-5.54448E-01	3.20334E-01	3.44078E+00	-4.20783E+00
-1.68752E-01	1.80643E-01	3.44050E+00	-4.17151E+00
1.07996E-01	1.73900E-01	3.44030E+00	-4.13521E+00
1.89966E-01	3.44647E-01	3.44020E+00	-4.09900E+00
1.47763E-01	5.10760E-01	3.44019E+00	-4.06292E+00
1.19763E-01	4.57903E-01	3.44020E+00	-4.02701E+00
1.89274E-01	1.58343E-01	3.44019E+00	-3.99124E+00
3.26698E-01	-1.95249E-01	3.44011E+00	-3.95557E+00
4.29168E-01	-3.68549E-01	3.43993E+00	-3.91995E+00
4.09820E-01	-3.01816E-01	3.43967E+00	-3.88426E+00
2.60621E-01	-1.56901E-01	3.43944E+00	-3.84849E+00
4.80604E-02	-1.52254E-01	3.43933E+00	-3.81268E+00
-1.41321E-01	-3.45925E-01	3.43931E+00	-3.77691E+00
-2.57719E-01	-5.74315E-01	3.43932E+00	-3.74120E+00
-3.09637E-01	-6.04207E-01	3.43937E+00	-3.70549E+00
-3.43725E-01	-3.52115E-01	3.43950E+00	-3.66977E+00
-4.01382E-01	3.74849E-02	3.43973E+00	-3.63411E+00
-4.79085E-01	3.25986E-01	3.44003E+00	-3.59856E+00
-5.17693E-01	3.94517E-01	3.44031E+00	-3.56314E+00
-4.33668E-01	3.31138E-01	3.44048E+00	-3.52778E+00
-1.82742E-01	3.11610E-01	3.44055E+00	-3.49238E+00
1.82501E-01	3.98077E-01	3.44056E+00	-3.45687E+00
5.11596E-01	4.62472E-01	3.44060E+00	-3.42125E+00
6.34210E-01	3.19073E-01	3.44070E+00	-3.38551E+00
4.77771E-01	-5.99614E-02	3.44091E+00	-3.34971E+00
1.38178E-01	-4.66350E-01	3.44122E+00	-3.31391E+00
-1.67105E-01	-6.12547E-01	3.44158E+00	-3.27813E+00
-2.48466E-01	-3.93724E-01	3.44195E+00	-3.24235E+00
-8.97341E-02	-8.42540E-03	3.44231E+00	-3.20655E+00
1.30729E-01	1.93380E-01	3.44266E+00	-3.17070E+00
1.74531E-01	1.66491E-02	3.44301E+00	-3.13476E+00
-6.45239E-02	-3.89928E-01	3.44339E+00	-3.09873E+00
-4.65242E-01	-6.43076E-01	3.44380E+00	-3.06261E+00
-7.64323E-01	-4.50028E-01	3.44425E+00	-3.02643E+00
-7.57423E-01	1.30454E-01	3.44474E+00	-2.99017E+00
-4.52747E-01	7.22001E-01	3.44525E+00	-2.95384E+00
-5.28279E-02	9.33950E-01	3.44576E+00	-2.91742E+00
2.14083E-01	6.73108E-01	3.44628E+00	-2.88091E+00
2.66082E-01	1.98653E-01	3.44679E+00	-2.84428E+00
1.99854E-01	-1.16367E-01	3.44732E+00	-2.80749E+00
1.69972E-01	-9.92436E-02	3.44789E+00	-2.77056E+00
2.35453E-01	1.05494E-01	3.44850E+00	-2.73348E+00
3.14864E-01	2.02966E-01	3.44917E+00	-2.69627E+00
2.82106E-01	3.18179E-02	3.44987E+00	-2.65892E+00
1.02204E-01	-2.94078E-01	3.45061E+00	-2.62144E+00
-1.26401E-01	-5.02703E-01	3.45137E+00	-2.58381E+00
-2.61504E-01	-4.17912E-01	3.45215E+00	-2.54602E+00
