jMRUI Data Textfile
 
Filename: Lac.txt
 
PointsInDataset: 2048
DatasetsInFile: 1
SamplingInterval: 5.00000E-01
ZeroOrderPhase: 0E0
BeginTime: 0E0
TransmitterFrequency: 1.27740E+08
MagneticField: 0E0
TypeOfNucleus: 0E0
NameOfPatient: 
DateOfExperiment: 
Spectrometer: Vespa-Simulation
AdditionalInfo: see 'readme' file for Vespa-Simulation output synopsis
 
  
Signal and FFT 
sig(real)	sig(imag)	fft(real)	fft(imag)
Signal 1 out of 1 in file
2.14859E+00	5.40018E-02	1.34482E+00	-2.12928E+00
6.69724E-01	-1.86560E+00	1.33927E+00	-2.11385E+00
-1.44104E+00	-9.03108E-01	1.33396E+00	-2.09865E+00
-9.46993E-01	1.25328E+00	1.32888E+00	-2.08377E+00
1.20747E+00	1.17357E+00	1.32392E+00	-2.06919E+00
1.56013E+00	-9.43159E-01	1.31910E+00	-2.05480E+00
-4.07731E-01	-1.75420E+00	1.31452E+00	-2.04063E+00
-1.61536E+00	-7.79613E-02	1.31009E+00	-2.02676E+00
-3.02910E-01	1.39466E+00	1.30577E+00	-2.01311E+00
1.33120E+00	4.36606E-01	1.30160E+00	-1.99965E+00
7.19276E-01	-1.31687E+00	1.29761E+00	-1.98642E+00
-1.10703E+00	-1.08892E+00	1.29374E+00	-1.97344E+00
-1.29404E+00	7.06691E-01	1.28997E+00	-1.96067E+00
3.50356E-01	1.27091E+00	1.28631E+00	-1.94808E+00
1.20648E+00	-1.53504E-01	1.28279E+00	-1.93569E+00
1.93164E-02	-1.23507E+00	1.27937E+00	-1.92351E+00
-1.25465E+00	-3.07162E-01	1.27602E+00	-1.91153E+00
-6.34562E-01	1.11294E+00	1.27276E+00	-1.89970E+00
8.44315E-01	8.35352E-01	1.26959E+00	-1.88804E+00
8.93486E-01	-6.06586E-01	1.26652E+00	-1.87654E+00
-4.50026E-01	-9.36053E-01	1.26352E+00	-1.86518E+00
-1.02365E+00	2.76324E-01	1.26061E+00	-1.85395E+00
1.90192E-02	1.07148E+00	1.25784E+00	-1.84287E+00
9.96550E-01	2.49858E-01	1.25518E+00	-1.83196E+00
4.31782E-01	-8.42893E-01	1.25260E+00	-1.82124E+00
-7.05264E-01	-5.36680E-01	1.25009E+00	-1.81068E+00
-6.40772E-01	5.93221E-01	1.24764E+00	-1.80030E+00
4.43194E-01	7.57035E-01	1.24522E+00	-1.79008E+00
8.22511E-01	-2.36762E-01	1.24283E+00	-1.77997E+00
-3.31407E-02	-8.02548E-01	1.24048E+00	-1.76997E+00
-7.38732E-01	-1.19076E-01	1.23821E+00	-1.76007E+00
-2.40777E-01	6.77958E-01	1.23600E+00	-1.75029E+00
6.07522E-01	3.68769E-01	1.23385E+00	-1.74062E+00
4.88846E-01	-4.92771E-01	1.23177E+00	-1.73107E+00
-3.43712E-01	-5.59593E-01	1.22976E+00	-1.72164E+00
-5.77166E-01	2.03349E-01	1.22779E+00	-1.71234E+00
8.64154E-02	5.74721E-01	1.22586E+00	-1.70315E+00
5.66041E-01	2.96829E-02	1.22398E+00	-1.69405E+00
1.54203E-01	-5.28946E-01	1.22215E+00	-1.68506E+00
-4.50348E-01	-2.60398E-01	1.22038E+00	-1.67618E+00
-3.25112E-01	3.54217E-01	1.21866E+00	-1.66742E+00
2.68143E-01	3.61644E-01	1.21697E+00	-1.65876E+00
3.93198E-01	-1.86408E-01	1.21531E+00	-1.65021E+00
-8.94345E-02	-4.13323E-01	1.21369E+00	-1.64175E+00
-3.98282E-01	-1.51293E-02	1.21209E+00	-1.63339E+00
-9.75255E-02	3.49123E-01	1.21052E+00	-1.62511E+00
2.94230E-01	1.48014E-01	1.20898E+00	-1.61691E+00
1.87404E-01	-2.48898E-01	1.20748E+00	-1.60880E+00
-1.97232E-01	-2.30116E-01	1.20601E+00	-1.60077E+00
-2.59608E-01	1.24263E-01	1.20458E+00	-1.59282E+00
4.60432E-02	2.54699E-01	1.20317E+00	-1.58495E+00
2.24205E-01	9.90082E-03	1.20180E+00	-1.57716E+00
4.22747E-02	-1.95427E-01	1.20046E+00	-1.56945E+00
-1.75380E-01	-7.32814E-02	1.19914E+00	-1.56181E+00
-1.11000E-01	1.44995E-01	1.19785E+00	-1.55423E+00
9.37297E-02	1.35809E-01	1.19662E+00	-1.54673E+00
1.30595E-01	-4.01192E-02	1.19542E+00	-1.53932E+00
-7.36712E-03	-1.07256E-01	1.19423E+00	-1.53200E+00
-8.95551E-02	-7.56007E-03	1.19306E+00	-1.52475E+00
-2.49489E-02	7.98977E-02	1.19191E+00	-1.51757E+00
6.01648E-02	4.89967E-02	1.19077E+00	-1.51046E+00
6.10663E-02	-2.33598E-02	1.18965E+00	-1.50341E+00
1.27937E-02	-4.81470E-02	1.18855E+00	-1.49642E+00
-2.24388E-02	-2.96327E-02	1.18747E+00	-1.48949E+00
-3.17510E-02	3.63840E-03	1.18642E+00	-1.48264E+00
-7.94609E-03	3.62154E-02	1.18536E+00	-1.47584E+00
4.49498E-02	2.76192E-02	1.18433E+00	-1.46909E+00
5.95426E-02	-4.19282E-02	1.18332E+00	-1.46238E+00
-1.77815E-02	-8.78825E-02	1.18233E+00	-1.45574E+00
-9.79588E-02	-1.59839E-02	1.18136E+00	-1.44914E+00
-4.34171E-02	9.47269E-02	1.18043E+00	-1.44259E+00
9.18151E-02	6.53181E-02	1.17953E+00	-1.43611E+00
9.38418E-02	-8.92208E-02	1.17865E+00	-1.42970E+00
-7.34248E-02	-1.30283E-01	1.17777E+00	-1.42336E+00
-1.60212E-01	3.85139E-02	1.17689E+00	-1.41706E+00
-4.29976E-03	1.72492E-01	1.17604E+00	-1.41081E+00
1.72690E-01	4.25454E-02	1.17521E+00	-1.40462E+00
7.86677E-02	-1.71078E-01	1.17439E+00	-1.39849E+00
-1.64731E-01	-1.22055E-01	1.17356E+00	-1.39241E+00
-1.70161E-01	1.41623E-01	1.17275E+00	-1.38637E+00
9.98506E-02	2.08649E-01	1.17194E+00	-1.38038E+00
2.30228E-01	-5.15767E-02	1.17113E+00	-1.37444E+00
-5.42315E-03	-2.42413E-01	1.17033E+00	-1.36851E+00
-2.51876E-01	-4.45319E-02	1.16955E+00	-1.36262E+00
-1.05289E-01	2.50639E-01	1.16881E+00	-1.35677E+00
2.27071E-01	1.68553E-01	1.16808E+00	-1.35096E+00
2.18699E-01	-1.84784E-01	1.16737E+00	-1.34521E+00
-1.38327E-01	-2.53674E-01	1.16667E+00	-1.33949E+00
-2.84817E-01	9.11102E-02	1.16600E+00	-1.33382E+00
3.12185E-02	3.14239E-01	1.16534E+00	-1.32820E+00
3.26104E-01	4.58684E-02	1.16469E+00	-1.32263E+00
1.23532E-01	-3.08628E-01	1.16405E+00	-1.31710E+00
-2.73290E-01	-1.84024E-01	1.16343E+00	-1.31162E+00
-2.32982E-01	2.38202E-01	1.16281E+00	-1.30621E+00
1.99072E-01	2.87494E-01	1.16218E+00	-1.30084E+00
3.43217E-01	-1.35343E-01	1.16154E+00	-1.29550E+00
-4.60045E-02	-3.73534E-01	1.16090E+00	-1.29019E+00
-3.67001E-01	-4.11577E-02	1.16025E+00	-1.28492E+00
-1.06546E-01	3.45898E-01	1.15960E+00	-1.27966E+00
3.32256E-01	1.66745E-01	1.15896E+00	-1.27441E+00
2.45941E-01	-3.10808E-01	1.15833E+00	-1.26918E+00
-2.50124E-01	-3.30656E-01	1.15774E+00	-1.26398E+00
-3.81008E-01	1.54741E-01	1.15715E+00	-1.25881E+00
6.62428E-02	3.87608E-01	1.15659E+00	-1.25365E+00
3.86677E-01	-4.63410E-03	1.15606E+00	-1.24853E+00
6.14205E-02	-4.03439E-01	1.15556E+00	-1.24345E+00
-4.07850E-01	-1.63555E-01	1.15509E+00	-1.23842E+00
-2.75826E-01	3.56438E-01	1.15465E+00	-1.23345E+00
2.62272E-01	3.43573E-01	1.15422E+00	-1.22855E+00
3.62456E-01	-1.82622E-01	1.15377E+00	-1.22375E+00
-1.35184E-01	-3.85426E-01	1.15326E+00	-1.21901E+00
-4.39012E-01	7.02822E-02	1.15265E+00	-1.21427E+00
-5.03963E-02	4.74597E-01	1.15203E+00	-1.20946E+00
4.36841E-01	1.84854E-01	1.15144E+00	-1.20461E+00
2.63452E-01	-3.50983E-01	1.15091E+00	-1.19975E+00
-2.90925E-01	-2.90838E-01	1.15046E+00	-1.19491E+00
-3.38806E-01	2.68152E-01	1.15007E+00	-1.19012E+00
2.11691E-01	4.32125E-01	1.14975E+00	-1.18544E+00
5.00342E-01	-7.87250E-02	1.14940E+00	-1.18088E+00
6.92823E-02	-4.77997E-01	1.14898E+00	-1.17640E+00
-4.06399E-01	-1.49147E-01	1.14847E+00	-1.17192E+00
-1.78995E-01	3.75665E-01	1.14793E+00	-1.16741E+00
3.86578E-01	2.50361E-01	1.14740E+00	-1.16287E+00
3.82388E-01	-3.44943E-01	1.14689E+00	-1.15831E+00
-2.06829E-01	-4.80499E-01	1.14641E+00	-1.15375E+00
-4.72337E-01	5.59598E-02	1.14598E+00	-1.14921E+00
-1.37920E-02	4.19056E-01	1.14559E+00	-1.14471E+00
4.25135E-01	3.87334E-02	1.14522E+00	-1.14024E+00
1.29623E-01	-4.75872E-01	1.14488E+00	-1.13582E+00
-4.53458E-01	-2.95539E-01	1.14454E+00	-1.13145E+00
-4.16805E-01	3.17271E-01	1.14420E+00	-1.12714E+00
1.74994E-01	4.18784E-01	1.14384E+00	-1.12286E+00
3.85559E-01	-1.26937E-01	1.14347E+00	-1.11860E+00
-1.14457E-01	-4.32765E-01	1.14310E+00	-1.11437E+00
-5.25702E-01	9.57156E-03	1.14271E+00	-1.11016E+00
-1.82112E-01	5.24280E-01	1.14232E+00	-1.10597E+00
3.96070E-01	3.16642E-01	1.14193E+00	-1.10178E+00
3.22504E-01	-2.73214E-01	1.14154E+00	-1.09762E+00
-2.57197E-01	-3.08724E-01	1.14115E+00	-1.09347E+00
-3.97741E-01	2.63781E-01	1.14075E+00	-1.08933E+00
1.51246E-01	5.31102E-01	1.14036E+00	-1.08519E+00
5.49405E-01	5.59221E-02	1.13999E+00	-1.08107E+00
1.91777E-01	-4.33558E-01	1.13964E+00	-1.07696E+00
-3.39210E-01	-1.93828E-01	1.13930E+00	-1.07288E+00
-1.96849E-01	3.63028E-01	1.13898E+00	-1.06882E+00
3.93358E-01	3.24740E-01	1.13867E+00	-1.06480E+00
4.92742E-01	-2.79476E-01	1.13835E+00	-1.06081E+00
-6.82090E-02	-5.26671E-01	1.13802E+00	-1.05684E+00
-4.25544E-01	-5.63976E-02	1.13769E+00	-1.05288E+00
-4.67047E-02	3.66028E-01	1.13738E+00	-1.04893E+00
4.34054E-01	6.22977E-02	1.13708E+00	-1.04502E+00
2.22979E-01	-4.90198E-01	1.13677E+00	-1.04113E+00
-3.80447E-01	-4.16466E-01	1.13646E+00	-1.03726E+00
-4.59579E-01	1.76324E-01	1.13615E+00	-1.03342E+00
7.47780E-02	3.73437E-01	1.13582E+00	-1.02960E+00
3.51879E-01	-1.03401E-01	1.13546E+00	-1.02578E+00
-8.01937E-02	-4.64504E-01	1.13512E+00	-1.02192E+00
-5.45628E-01	-1.04705E-01	1.13484E+00	-1.01807E+00
-3.12163E-01	4.44083E-01	1.13460E+00	-1.01429E+00
2.57079E-01	3.56512E-01	1.13432E+00	-1.01056E+00
2.83753E-01	-1.88391E-01	1.13402E+00	-1.00684E+00
-2.41421E-01	-2.99956E-01	1.13371E+00	-1.00311E+00
-4.53652E-01	2.15640E-01	1.13341E+00	-9.99385E-01
1.64099E-02	5.56016E-01	1.13313E+00	-9.95675E-01
4.64968E-01	1.92353E-01	1.13286E+00	-9.91979E-01
2.29354E-01	-3.02994E-01	1.13261E+00	-9.88305E-01
-2.73972E-01	-1.66997E-01	1.13237E+00	-9.84672E-01
-2.17711E-01	3.54482E-01	1.13211E+00	-9.81080E-01
3.30539E-01	4.05467E-01	1.13183E+00	-9.77509E-01
5.22901E-01	-1.27246E-01	1.13151E+00	-9.73930E-01
7.03231E-02	-4.42815E-01	1.13120E+00	-9.70319E-01
-3.11030E-01	-9.19175E-02	1.13094E+00	-9.66698E-01
-3.61113E-02	3.24974E-01	1.13071E+00	-9.63117E-01
4.33247E-01	1.15643E-01	1.13049E+00	-9.59593E-01
3.27777E-01	-4.14396E-01	1.13024E+00	-9.56102E-01
-2.16660E-01	-4.52364E-01	1.12997E+00	-9.52616E-01
-3.82048E-01	4.14295E-02	1.12969E+00	-9.49120E-01
4.19388E-02	2.82731E-01	1.12942E+00	-9.45620E-01
3.39198E-01	-9.51288E-02	1.12917E+00	-9.42124E-01
5.77610E-03	-4.72713E-01	1.12895E+00	-9.38647E-01
-4.60740E-01	-2.30977E-01	1.12874E+00	-9.35206E-01
-3.53967E-01	2.76693E-01	1.12852E+00	-9.31803E-01
1.32615E-01	2.90956E-01	1.12828E+00	-9.28422E-01
2.23603E-01	-1.59821E-01	1.12803E+00	-9.25043E-01
-2.13894E-01	-3.18704E-01	1.12776E+00	-9.21656E-01
-4.72401E-01	9.97682E-02	1.12752E+00	-9.18264E-01
-1.26704E-01	4.67493E-01	1.12729E+00	-9.14878E-01
3.03264E-01	2.39348E-01	1.12709E+00	-9.11513E-01
1.80440E-01	-1.96147E-01	1.12689E+00	-9.08187E-01
-2.52090E-01	-1.42160E-01	1.12669E+00	-9.04898E-01
-2.69145E-01	3.09608E-01	1.12647E+00	-9.01633E-01
