jMRUI Data Textfile
 
Filename: mI.txt
 
PointsInDataset: 2048
DatasetsInFile: 1
SamplingInterval: 5.00000E-01
ZeroOrderPhase: 0E0
BeginTime: 0E0
TransmitterFrequency: 1.27740E+08
MagneticField: 0E0
TypeOfNucleus: 0E0
NameOfPatient: 
DateOfExperiment: 
Spectrometer: Vespa-Simulation
AdditionalInfo: see 'readme' file for Vespa-Simulation output synopsis
 
  
Signal and FFT 
sig(real)	sig(imag)	fft(real)	fft(imag)
Signal 1 out of 1 in file
3.85242E+00	-1.29683E-01	2.04454E+00	-9.61058E+00
3.37769E+00	-1.67057E+00	2.03978E+00	-9.52950E+00
2.31013E+00	-2.82290E+00	2.03519E+00	-9.44985E+00
8.97577E-01	-3.37895E+00	2.03075E+00	-9.37159E+00
-5.53774E-01	-3.27103E+00	2.02645E+00	-9.29467E+00
-1.75182E+00	-2.57746E+00	2.02229E+00	-9.21905E+00
-2.48269E+00	-1.49420E+00	2.01826E+00	-9.14471E+00
-2.65162E+00	-2.81353E-01	2.01437E+00	-9.07160E+00
-2.29286E+00	8.00488E-01	2.01060E+00	-8.99969E+00
-1.54891E+00	1.54777E+00	2.00694E+00	-8.92895E+00
-6.27281E-01	1.85259E+00	2.00340E+00	-8.85935E+00
2.52601E-01	1.71512E+00	1.99997E+00	-8.79086E+00
9.08809E-01	1.23032E+00	1.99665E+00	-8.72346E+00
1.23161E+00	5.55157E-01	1.99343E+00	-8.65710E+00
1.19757E+00	-1.33477E-01	1.99031E+00	-8.59178E+00
8.62794E-01	-6.79177E-01	1.98729E+00	-8.52745E+00
3.40221E-01	-9.76120E-01	1.98436E+00	-8.46411E+00
-2.31586E-01	-9.83890E-01	1.98152E+00	-8.40172E+00
-7.19917E-01	-7.26662E-01	1.97876E+00	-8.34026E+00
-1.02315E+00	-2.79702E-01	1.97608E+00	-8.27971E+00
-1.08589E+00	2.51543E-01	1.97348E+00	-8.22005E+00
-9.03395E-01	7.54402E-01	1.97096E+00	-8.16126E+00
-5.16560E-01	1.12947E+00	1.96852E+00	-8.10331E+00
-5.04462E-04	1.30588E+00	1.96614E+00	-8.04619E+00
5.50416E-01	1.25030E+00	1.96384E+00	-7.98988E+00
1.03856E+00	9.69685E-01	1.96160E+00	-7.93436E+00
1.37813E+00	5.08477E-01	1.95942E+00	-7.87962E+00
1.50805E+00	-5.89535E-02	1.95730E+00	-7.82564E+00
1.40149E+00	-6.39857E-01	1.95523E+00	-7.77239E+00
1.07084E+00	-1.13760E+00	1.95322E+00	-7.71987E+00
5.66832E-01	-1.46760E+00	1.95125E+00	-7.66805E+00
-2.86254E-02	-1.57233E+00	1.94934E+00	-7.61691E+00
-6.15805E-01	-1.43279E+00	1.94748E+00	-7.56644E+00
-1.09486E+00	-1.07364E+00	1.94567E+00	-7.51663E+00
-1.38500E+00	-5.60018E-01	1.94392E+00	-7.46746E+00
-1.44082E+00	1.40041E-02	1.94222E+00	-7.41893E+00
-1.26229E+00	5.43916E-01	1.94057E+00	-7.37102E+00
-8.95108E-01	9.36194E-01	1.93897E+00	-7.32372E+00
-4.21114E-01	1.12800E+00	1.93742E+00	-7.27702E+00
5.98245E-02	1.10049E+00	1.93592E+00	-7.23092E+00
4.52110E-01	8.81942E-01	1.93445E+00	-7.18540E+00
6.85889E-01	5.40017E-01	1.93300E+00	-7.14045E+00
7.32028E-01	1.64658E-01	1.93158E+00	-7.09604E+00
6.07154E-01	-1.54104E-01	1.93020E+00	-7.05217E+00
3.67292E-01	-3.47729E-01	1.92884E+00	-7.00882E+00
9.19419E-02	-3.84884E-01	1.92752E+00	-6.96598E+00
-1.37148E-01	-2.77157E-01	1.92624E+00	-6.92363E+00
-2.57030E-01	-7.37128E-02	1.92500E+00	-6.88178E+00
-2.38857E-01	1.53520E-01	1.92381E+00	-6.84042E+00
-9.37453E-02	3.29884E-01	1.92266E+00	-6.79956E+00
1.32032E-01	3.97911E-01	1.92154E+00	-6.75918E+00
3.70794E-01	3.31845E-01	1.92044E+00	-6.71927E+00
5.52230E-01	1.43231E-01	1.91936E+00	-6.67981E+00
6.21937E-01	-1.23441E-01	1.91831E+00	-6.64080E+00
5.55007E-01	-4.03503E-01	1.91728E+00	-6.60223E+00
3.61310E-01	-6.29359E-01	1.91627E+00	-6.56409E+00
8.15757E-02	-7.47661E-01	1.91529E+00	-6.52636E+00
-2.24057E-01	-7.31802E-01	1.91434E+00	-6.48905E+00
-4.91739E-01	-5.86967E-01	1.91341E+00	-6.45215E+00
-6.69365E-01	-3.46877E-01	1.91251E+00	-6.41565E+00
-7.27965E-01	-6.38084E-02	1.91162E+00	-6.37955E+00
-6.66512E-01	2.05177E-01	1.91076E+00	-6.34383E+00
-5.09441E-01	4.11763E-01	1.90991E+00	-6.30849E+00
-2.98265E-01	5.26538E-01	1.90909E+00	-6.27352E+00
-8.00319E-02	5.43337E-01	1.90830E+00	-6.23892E+00
1.04190E-01	4.77531E-01	1.90753E+00	-6.20468E+00
2.27917E-01	3.59264E-01	1.90678E+00	-6.17081E+00
2.82999E-01	2.24056E-01	1.90606E+00	-6.13729E+00
2.78420E-01	1.03458E-01	1.90535E+00	-6.10412E+00
2.34975E-01	1.81386E-02	1.90465E+00	-6.07129E+00
1.77839E-01	-2.52081E-02	1.90396E+00	-6.03879E+00
1.29237E-01	-3.28175E-02	1.90329E+00	-6.00661E+00
1.03125E-01	-1.96906E-02	1.90263E+00	-5.97476E+00
1.02936E-01	-3.81175E-03	1.90200E+00	-5.94323E+00
1.22510E-01	-5.37867E-04	1.90137E+00	-5.91201E+00
1.49442E-01	-1.86543E-02	1.90076E+00	-5.88110E+00
1.69546E-01	-5.88378E-02	1.90016E+00	-5.85049E+00
1.71059E-01	-1.14565E-01	1.89956E+00	-5.82017E+00
1.47497E-01	-1.74732E-01	1.89898E+00	-5.79013E+00
9.86503E-02	-2.27041E-01	1.89842E+00	-5.76037E+00
2.98200E-02	-2.61037E-01	1.89789E+00	-5.73089E+00
-5.01626E-02	-2.70086E-01	1.89738E+00	-5.70169E+00
-1.31224E-01	-2.51980E-01	1.89690E+00	-5.67279E+00
-2.04026E-01	-2.08393E-01	1.89644E+00	-5.64417E+00
-2.61124E-01	-1.43671E-01	1.89597E+00	-5.61583E+00
-2.97192E-01	-6.36186E-02	1.89552E+00	-5.58776E+00
-3.08735E-01	2.53179E-02	1.89505E+00	-5.55995E+00
-2.93664E-01	1.16243E-01	1.89458E+00	-5.53240E+00
-2.51213E-01	2.01636E-01	1.89411E+00	-5.50508E+00
-1.82432E-01	2.73096E-01	1.89366E+00	-5.47799E+00
-9.10907E-02	3.21659E-01	1.89323E+00	-5.45114E+00
1.54031E-02	3.38861E-01	1.89282E+00	-5.42453E+00
1.25723E-01	3.18577E-01	1.89243E+00	-5.39815E+00
2.25364E-01	2.59204E-01	1.89206E+00	-5.37201E+00
2.98774E-01	1.65500E-01	1.89171E+00	-5.34611E+00
3.32537E-01	4.92162E-02	1.89138E+00	-5.32046E+00
3.18854E-01	-7.19316E-02	1.89104E+00	-5.29505E+00
2.58429E-01	-1.77243E-01	1.89069E+00	-5.26987E+00
1.61658E-01	-2.47394E-01	1.89034E+00	-5.24490E+00
4.74166E-02	-2.69249E-01	1.88998E+00	-5.22013E+00
-6.05329E-02	-2.39716E-01	1.88963E+00	-5.19556E+00
-1.38989E-01	-1.67506E-01	1.88929E+00	-5.17119E+00
-1.71233E-01	-7.19076E-02	1.88897E+00	-5.14701E+00
-1.51855E-01	2.14521E-02	1.88867E+00	-5.12304E+00
-8.89416E-02	8.69418E-02	1.88839E+00	-5.09927E+00
-2.77838E-03	1.05885E-01	1.88812E+00	-5.07571E+00
7.89690E-02	7.21574E-02	1.88787E+00	-5.05235E+00
1.28496E-01	-5.26619E-03	1.88761E+00	-5.02919E+00
1.25738E-01	-1.03801E-01	1.88736E+00	-5.00624E+00
6.46523E-02	-1.92695E-01	1.88711E+00	-4.98347E+00
-4.40065E-02	-2.41189E-01	1.88685E+00	-4.96088E+00
-1.74407E-01	-2.27248E-01	1.88660E+00	-4.93848E+00
-2.91759E-01	-1.44475E-01	1.88634E+00	-4.91624E+00
-3.61327E-01	-5.11415E-03	1.88610E+00	-4.89417E+00
-3.58010E-01	1.61986E-01	1.88588E+00	-4.87227E+00
-2.73806E-01	3.18008E-01	1.88566E+00	-4.85055E+00
-1.21032E-01	4.23969E-01	1.88545E+00	-4.82899E+00
6.98767E-02	4.50997E-01	1.88527E+00	-4.80760E+00
2.57421E-01	3.88260E-01	1.88510E+00	-4.78638E+00
3.99358E-01	2.46396E-01	1.88495E+00	-4.76535E+00
4.63410E-01	5.53253E-02	1.88481E+00	-4.74450E+00
4.35541E-01	-1.43088E-01	1.88466E+00	-4.72384E+00
3.23475E-01	-3.05417E-01	1.88449E+00	-4.70334E+00
1.54603E-01	-3.97542E-01	1.88429E+00	-4.68301E+00
-3.12091E-02	-4.02917E-01	1.88408E+00	-4.66280E+00
-1.91917E-01	-3.26129E-01	1.88385E+00	-4.64273E+00
-2.93740E-01	-1.90886E-01	1.88363E+00	-4.62276E+00
-3.19150E-01	-3.31638E-02	1.88343E+00	-4.60291E+00
-2.70233E-01	1.08483E-01	1.88329E+00	-4.58318E+00
-1.66794E-01	2.02708E-01	1.88321E+00	-4.56361E+00
-3.99594E-02	2.32673E-01	1.88317E+00	-4.54422E+00
7.65814E-02	1.98934E-01	1.88315E+00	-4.52502E+00
1.55327E-01	1.17656E-01	1.88312E+00	-4.50602E+00
1.81234E-01	1.48757E-02	1.88305E+00	-4.48722E+00
1.54062E-01	-8.12005E-02	1.88292E+00	-4.46856E+00
8.65784E-02	-1.47555E-01	1.88272E+00	-4.45001E+00
-4.34149E-04	-1.71399E-01	1.88249E+00	-4.43152E+00
-8.45354E-02	-1.51796E-01	1.88229E+00	-4.41310E+00
-1.47439E-01	-9.78670E-02	1.88215E+00	-4.39478E+00
-1.78580E-01	-2.46881E-02	1.88203E+00	-4.37659E+00
-1.75943E-01	5.15744E-02	1.88195E+00	-4.35854E+00
-1.44339E-01	1.17652E-01	1.88190E+00	-4.34061E+00
-9.22627E-02	1.65228E-01	1.88189E+00	-4.32283E+00
-2.87161E-02	1.90851E-01	1.88189E+00	-4.30523E+00
3.88052E-02	1.94289E-01	1.88188E+00	-4.28781E+00
1.04714E-01	1.76465E-01	1.88182E+00	-4.27052E+00
1.64218E-01	1.38100E-01	1.88171E+00	-4.25335E+00
2.11785E-01	7.97749E-02	1.88159E+00	-4.23626E+00
2.40179E-01	3.38776E-03	1.88146E+00	-4.21925E+00
2.40968E-01	-8.57567E-02	1.88135E+00	-4.20233E+00
2.06737E-01	-1.77378E-01	1.88126E+00	-4.18551E+00
1.34429E-01	-2.56297E-01	1.88120E+00	-4.16880E+00
2.85035E-02	-3.04802E-01	1.88116E+00	-4.15221E+00
-9.73138E-02	-3.06891E-01	1.88112E+00	-4.13575E+00
-2.21066E-01	-2.53498E-01	1.88109E+00	-4.11942E+00
-3.16514E-01	-1.46848E-01	1.88105E+00	-4.10319E+00
-3.59367E-01	-2.36219E-03	1.88101E+00	-4.08707E+00
-3.34177E-01	1.53029E-01	1.88097E+00	-4.07106E+00
-2.39836E-01	2.86195E-01	1.88093E+00	-4.05515E+00
-9.18173E-02	3.65666E-01	1.88090E+00	-4.03934E+00
8.00435E-02	3.70028E-01	1.88087E+00	-4.02364E+00
2.37768E-01	2.94370E-01	1.88084E+00	-4.00805E+00
3.44410E-01	1.52913E-01	1.88081E+00	-3.99256E+00
3.73566E-01	-2.33716E-02	1.88077E+00	-3.97716E+00
3.16678E-01	-1.93755E-01	1.88074E+00	-3.96186E+00
1.85978E-01	-3.17692E-01	1.88070E+00	-3.94665E+00
1.20892E-02	-3.65107E-01	1.88067E+00	-3.93153E+00
-1.63358E-01	-3.24270E-01	1.88065E+00	-3.91650E+00
-2.97952E-01	-2.05006E-01	1.88064E+00	-3.90156E+00
-3.59232E-01	-3.64183E-02	1.88064E+00	-3.88673E+00
-3.32819E-01	1.40416E-01	1.88063E+00	-3.87200E+00
-2.25878E-01	2.82787E-01	1.88062E+00	-3.85736E+00
-6.50389E-02	3.56994E-01	1.88062E+00	-3.84281E+00
1.10575E-01	3.46500E-01	1.88061E+00	-3.82835E+00
2.59387E-01	2.55505E-01	1.88060E+00	-3.81398E+00
3.47493E-01	1.07204E-01	1.88059E+00	-3.79970E+00
3.56626E-01	-6.26357E-02	1.88059E+00	-3.78550E+00
2.87744E-01	-2.14902E-01	1.88058E+00	-3.77139E+00
1.59681E-01	-3.16650E-01	1.88058E+00	-3.75736E+00
3.50511E-03	-3.48458E-01	1.88057E+00	-3.74341E+00
-1.45660E-01	-3.07928E-01	1.88057E+00	-3.72953E+00
-2.57083E-01	-2.08790E-01	1.88058E+00	-3.71574E+00
-3.11049E-01	-7.61641E-02	1.88060E+00	-3.70203E+00
-3.02030E-01	6.02547E-02	1.88062E+00	-3.68841E+00
-2.38263E-01	1.73362E-01	1.88064E+00	-3.67487E+00
-1.38107E-01	2.44204E-01	1.88066E+00	-3.66141E+00
-2.46245E-02	2.64832E-01	1.88069E+00	-3.64803E+00
8.00095E-02	2.38179E-01	1.88072E+00	-3.63474E+00
1.58864E-01	1.75523E-01	1.88074E+00	-3.62154E+00
2.02597E-01	9.25887E-02	1.88076E+00	-3.60840E+00
2.09520E-01	5.64162E-03	1.88077E+00	-3.59534E+00
