jMRUI Data Textfile
 
Filename: NAA.txt
 
PointsInDataset: 2048
DatasetsInFile: 1
SamplingInterval: 5.00000E-01
ZeroOrderPhase: 0E0
BeginTime: 0E0
TransmitterFrequency: 1.27740E+08
MagneticField: 0E0
TypeOfNucleus: 0E0
NameOfPatient: 
DateOfExperiment: 
Spectrometer: Vespa-Simulation
AdditionalInfo: see 'readme' file for Vespa-Simulation output synopsis
 
  
Signal and FFT 
sig(real)	sig(imag)	fft(real)	fft(imag)
Signal 1 out of 1 in file
4.60096E+00	-2.69038E-01	2.72461E+00	-4.79669E+00
2.09692E+00	-2.62316E+00	2.70090E+00	-4.74611E+00
-2.24339E+00	-2.63734E+00	2.67784E+00	-4.69713E+00
-3.80394E+00	-2.83447E-01	2.65559E+00	-4.64953E+00
-1.15517E+00	2.27516E+00	2.63423E+00	-4.60316E+00
2.61228E+00	2.55897E+00	2.61381E+00	-4.55792E+00
3.50819E+00	1.85302E-01	2.59432E+00	-4.51373E+00
9.07909E-01	-2.54637E+00	2.57577E+00	-4.47053E+00
-2.16235E+00	-2.82947E+00	2.55813E+00	-4.42830E+00
-2.57902E+00	-3.15801E-01	2.54135E+00	-4.38698E+00
-3.13872E-01	2.34614E+00	2.52539E+00	-4.34651E+00
1.97913E+00	2.27436E+00	2.51025E+00	-4.30683E+00
2.00915E+00	-4.48732E-01	2.49591E+00	-4.26794E+00
4.37415E-02	-2.78724E+00	2.48236E+00	-4.22983E+00
-1.75122E+00	-2.12527E+00	2.46952E+00	-4.19251E+00
-1.67029E+00	7.67162E-01	2.45734E+00	-4.15593E+00
-4.11111E-03	2.61030E+00	2.44580E+00	-4.12007E+00
1.49140E+00	1.36346E+00	2.43485E+00	-4.08489E+00
1.37096E+00	-1.47476E+00	2.42447E+00	-4.05038E+00
-1.90250E-01	-2.64610E+00	2.41464E+00	-4.01652E+00
-1.62578E+00	-8.72433E-01	2.40532E+00	-3.98330E+00
-1.47858E+00	1.76880E+00	2.39648E+00	-3.95074E+00
1.58287E-01	2.31028E+00	2.38805E+00	-3.91878E+00
1.63656E+00	2.47661E-01	2.38000E+00	-3.88739E+00
1.35175E+00	-2.02421E+00	2.37233E+00	-3.85649E+00
-5.20807E-01	-2.00173E+00	2.36508E+00	-3.82610E+00
-2.03140E+00	1.97282E-01	2.35822E+00	-3.79626E+00
-1.44772E+00	2.12724E+00	2.35170E+00	-3.76696E+00
7.66371E-01	1.76670E+00	2.34545E+00	-3.73817E+00
2.26397E+00	-4.00579E-01	2.33946E+00	-3.70984E+00
1.31497E+00	-2.07080E+00	2.33374E+00	-3.68194E+00
-1.18421E+00	-1.58565E+00	2.32828E+00	-3.65446E+00
-2.54987E+00	4.75679E-01	2.32308E+00	-3.62740E+00
-1.22840E+00	2.03339E+00	2.31812E+00	-3.60074E+00
1.42971E+00	1.60890E+00	2.31338E+00	-3.57447E+00
2.59154E+00	-3.18665E-01	2.30885E+00	-3.54858E+00
1.02963E+00	-1.87341E+00	2.30455E+00	-3.52304E+00
-1.55717E+00	-1.59725E+00	2.30045E+00	-3.49786E+00
-2.43348E+00	1.97598E-01	2.29655E+00	-3.47304E+00
-7.81729E-01	1.75692E+00	2.29283E+00	-3.44857E+00
1.53023E+00	1.57696E+00	2.28927E+00	-3.42443E+00
2.08363E+00	-1.27983E-01	2.28588E+00	-3.40060E+00
4.77487E-01	-1.62670E+00	2.28266E+00	-3.37709E+00
-1.42766E+00	-1.41131E+00	2.27958E+00	-3.35390E+00
-1.65031E+00	2.44149E-01	2.27664E+00	-3.33102E+00
-1.48989E-01	1.55761E+00	2.27382E+00	-3.30843E+00
1.33257E+00	1.13329E+00	2.27112E+00	-3.28614E+00
1.24633E+00	-5.22373E-01	2.26851E+00	-3.26411E+00
-1.80481E-01	-1.54833E+00	2.26600E+00	-3.24233E+00
-1.33773E+00	-7.90348E-01	2.26361E+00	-3.22079E+00
-1.00296E+00	8.98137E-01	2.26132E+00	-3.19950E+00
4.21822E-01	1.59770E+00	2.25913E+00	-3.17844E+00
1.40381E+00	4.80550E-01	2.25703E+00	-3.15760E+00
8.94134E-01	-1.23808E+00	2.25504E+00	-3.13699E+00
-6.01504E-01	-1.63786E+00	2.25313E+00	-3.11661E+00
-1.54393E+00	-2.29895E-01	2.25130E+00	-3.09645E+00
-9.28768E-01	1.48978E+00	2.24955E+00	-3.07648E+00
6.70027E-01	1.67093E+00	2.24790E+00	-3.05670E+00
1.64468E+00	1.10478E-01	2.24634E+00	-3.03714E+00
9.75884E-01	-1.55055E+00	2.24485E+00	-3.01780E+00
-6.95906E-01	-1.59452E+00	2.24342E+00	-2.99866E+00
-1.68219E+00	-1.92691E-02	2.24204E+00	-2.97971E+00
-9.68981E-01	1.52219E+00	2.24071E+00	-2.96093E+00
7.17429E-01	1.48177E+00	2.23944E+00	-2.94233E+00
1.64559E+00	-1.97149E-02	2.23821E+00	-2.92390E+00
8.79503E-01	-1.40251E+00	2.23704E+00	-2.90562E+00
-7.48531E-01	-1.29473E+00	2.23593E+00	-2.88751E+00
-1.53070E+00	1.04769E-01	2.23486E+00	-2.86956E+00
-6.89589E-01	1.31201E+00	2.23383E+00	-2.85176E+00
8.31519E-01	1.11638E+00	2.23284E+00	-2.83408E+00
1.41413E+00	-2.11561E-01	2.23192E+00	-2.81655E+00
4.89038E-01	-1.25915E+00	2.23105E+00	-2.79916E+00
-9.07114E-01	-9.56831E-01	2.23023E+00	-2.78191E+00
-1.28788E+00	3.34908E-01	2.22947E+00	-2.76480E+00
-2.95457E-01	1.23855E+00	2.22876E+00	-2.74785E+00
9.74252E-01	8.16646E-01	2.22807E+00	-2.73106E+00
1.18079E+00	-4.57519E-01	2.22738E+00	-2.71438E+00
1.46752E-01	-1.22498E+00	2.22674E+00	-2.69780E+00
-1.00759E+00	-6.90004E-01	2.22616E+00	-2.68135E+00
-1.08021E+00	5.51150E-01	2.22561E+00	-2.66505E+00
-3.60471E-02	1.17342E+00	2.22506E+00	-2.64887E+00
1.00052E+00	5.45710E-01	2.22453E+00	-2.63277E+00
9.51913E-01	-6.21046E-01	2.22406E+00	-2.61679E+00
-9.28507E-02	-1.07316E+00	2.22361E+00	-2.60094E+00
-1.00266E+00	-3.65075E-01	2.22315E+00	-2.58519E+00
-8.16377E-01	6.99120E-01	2.22273E+00	-2.56949E+00
2.41985E-01	9.70786E-01	2.22239E+00	-2.55391E+00
1.01499E+00	1.91965E-01	2.22205E+00	-2.53848E+00
6.61350E-01	-7.64642E-01	2.22168E+00	-2.52312E+00
-4.31313E-01	-8.62585E-01	2.22139E+00	-2.50778E+00
-1.05946E+00	-6.76302E-03	2.22120E+00	-2.49262E+00
-5.12860E-01	8.77945E-01	2.22093E+00	-2.47760E+00
6.35413E-01	8.39463E-01	2.22066E+00	-2.46258E+00
1.13366E+00	-1.00605E-01	2.22050E+00	-2.44765E+00
4.12609E-01	-9.69518E-01	2.22034E+00	-2.43289E+00
-7.78793E-01	-8.48858E-01	2.22014E+00	-2.41819E+00
-1.16731E+00	1.72839E-01	2.21997E+00	-2.40352E+00
-3.23870E-01	1.06959E+00	2.21985E+00	-2.38896E+00
8.76446E-01	9.09441E-01	2.21972E+00	-2.37451E+00
1.18945E+00	-1.84470E-01	2.21958E+00	-2.36011E+00
3.08938E-01	-1.12646E+00	2.21947E+00	-2.34575E+00
-8.44130E-01	-9.53965E-01	2.21940E+00	-2.33147E+00
-1.11150E+00	1.77468E-01	2.21933E+00	-2.31728E+00
-2.77850E-01	1.12653E+00	2.21926E+00	-2.30313E+00
7.74210E-01	9.27861E-01	2.21923E+00	-2.28903E+00
1.01365E+00	-2.04010E-01	2.21925E+00	-2.27501E+00
2.77802E-01	-1.09469E+00	2.21929E+00	-2.26109E+00
-6.47345E-01	-8.42935E-01	2.21931E+00	-2.24724E+00
-8.67435E-01	2.39040E-01	2.21935E+00	-2.23342E+00
-2.41611E-01	9.87301E-01	2.21943E+00	-2.21967E+00
5.52926E-01	6.48494E-01	2.21954E+00	-2.20601E+00
7.35651E-01	-3.39258E-01	2.21964E+00	-2.19244E+00
1.77917E-01	-8.79988E-01	2.21974E+00	-2.17893E+00
-5.14728E-01	-4.37627E-01	2.21983E+00	-2.16549E+00
-6.34479E-01	4.23909E-01	2.21989E+00	-2.15211E+00
-8.40450E-02	7.32788E-01	2.21993E+00	-2.13874E+00
5.33380E-01	1.99450E-01	2.21997E+00	-2.12537E+00
5.46322E-01	-5.19136E-01	2.22007E+00	-2.11202E+00
-6.53056E-02	-6.11836E-01	2.22021E+00	-2.09871E+00
-6.27017E-01	-1.34384E-02	2.22039E+00	-2.08545E+00
-4.91755E-01	5.78905E-01	2.22062E+00	-2.07225E+00
2.25165E-01	5.16252E-01	2.22088E+00	-2.05915E+00
7.29811E-01	-1.08841E-01	2.22114E+00	-2.04613E+00
4.19409E-01	-6.10804E-01	2.22138E+00	-2.03318E+00
-4.06820E-01	-4.65132E-01	2.22161E+00	-2.02027E+00
-8.32743E-01	1.65316E-01	2.22182E+00	-2.00741E+00
-3.43058E-01	6.35192E-01	2.22203E+00	-1.99458E+00
5.62482E-01	4.77288E-01	2.22222E+00	-1.98177E+00
8.90639E-01	-1.54159E-01	2.22243E+00	-1.96899E+00
2.59542E-01	-6.49186E-01	2.22265E+00	-1.95623E+00
-6.59261E-01	-5.24454E-01	2.22289E+00	-1.94351E+00
-8.74644E-01	1.18485E-01	2.22313E+00	-1.93081E+00
-1.64790E-01	6.71512E-01	2.22339E+00	-1.91815E+00
6.97339E-01	5.82939E-01	2.22367E+00	-1.90551E+00
8.08651E-01	-9.40230E-02	2.22398E+00	-1.89290E+00
1.00358E-01	-7.08210E-01	2.22430E+00	-1.88035E+00
-6.46398E-01	-6.30917E-01	2.22463E+00	-1.86785E+00
-6.80330E-01	8.55806E-02	2.22494E+00	-1.85539E+00
-4.51060E-02	7.14324E-01	2.22524E+00	-1.84295E+00
5.55397E-01	5.90903E-01	2.22555E+00	-1.83052E+00
5.41726E-01	-1.62791E-01	2.22588E+00	-1.81811E+00
9.73388E-03	-7.40156E-01	2.22623E+00	-1.80573E+00
-4.62541E-01	-5.19087E-01	2.22660E+00	-1.79338E+00
-4.38256E-01	2.44871E-01	2.22698E+00	-1.78109E+00
-7.52496E-03	6.97788E-01	2.22734E+00	-1.76883E+00
3.74048E-01	3.46800E-01	2.22768E+00	-1.75659E+00
3.46880E-01	-3.88343E-01	2.22803E+00	-1.74436E+00
-3.89874E-02	-6.65483E-01	2.22837E+00	-1.73214E+00
-3.97772E-01	-1.84027E-01	2.22871E+00	-1.71992E+00
-3.71658E-01	4.89770E-01	2.22908E+00	-1.70770E+00
2.83763E-02	5.92697E-01	2.22948E+00	-1.69549E+00
4.08656E-01	3.22096E-02	2.22991E+00	-1.68333E+00
3.58877E-01	-5.41458E-01	2.23034E+00	-1.67119E+00
-1.13345E-01	-4.97090E-01	2.23077E+00	-1.65908E+00
-5.34657E-01	8.68012E-02	2.23120E+00	-1.64700E+00
-4.30949E-01	5.60972E-01	2.23162E+00	-1.63491E+00
1.37310E-01	4.46902E-01	2.23207E+00	-1.62282E+00
5.80866E-01	-8.13803E-02	2.23256E+00	-1.61077E+00
3.99824E-01	-4.53237E-01	2.23304E+00	-1.59876E+00
-2.37005E-01	-3.25596E-01	2.23351E+00	-1.58680E+00
-6.38054E-01	1.16685E-01	2.23394E+00	-1.57484E+00
-3.50366E-01	4.22123E-01	2.23436E+00	-1.56286E+00
3.15359E-01	3.33436E-01	2.23479E+00	-1.55088E+00
6.22776E-01	-1.76692E-02	2.23524E+00	-1.53890E+00
2.44488E-01	-2.89059E-01	2.23569E+00	-1.52692E+00
-3.69693E-01	-2.46127E-01	2.23615E+00	-1.51494E+00
-5.19585E-01	5.35307E-02	2.23662E+00	-1.50297E+00
-5.70636E-02	3.22292E-01	2.23710E+00	-1.49100E+00
4.68612E-01	2.93688E-01	2.23758E+00	-1.47903E+00
4.66885E-01	-2.31586E-02	2.23807E+00	-1.46706E+00
-2.50608E-02	-3.18782E-01	2.23859E+00	-1.45508E+00
-4.24292E-01	-2.69098E-01	2.23913E+00	-1.44312E+00
-2.91911E-01	1.06033E-01	2.23967E+00	-1.43118E+00
1.92713E-01	4.10036E-01	2.24022E+00	-1.41925E+00
4.82332E-01	2.74326E-01	2.24076E+00	-1.40733E+00
2.86515E-01	-2.01959E-01	2.24131E+00	-1.39541E+00
-1.50085E-01	-5.06572E-01	2.24185E+00	-1.38350E+00
-3.65890E-01	-2.72988E-01	2.24237E+00	-1.37158E+00
-1.75243E-01	2.69936E-01	2.24289E+00	-1.35965E+00
1.92671E-01	5.15128E-01	2.24342E+00	-1.34770E+00
3.75593E-01	1.62091E-01	2.24394E+00	-1.33573E+00
2.25899E-01	-4.15890E-01	2.24448E+00	-1.32374E+00
-9.80860E-02	-5.77426E-01	2.24503E+00	-1.31173E+00
-3.06793E-01	-1.43322E-01	2.24561E+00	-1.29970E+00
-2.24838E-01	3.96487E-01	2.24620E+00	-1.28767E+00
7.28289E-02	4.43914E-01	2.24682E+00	-1.27563E+00
3.15064E-01	-3.31408E-02	2.24746E+00	-1.26357E+00
2.57824E-01	-4.88154E-01	2.24815E+00	-1.25152E+00
-7.56697E-02	-4.31882E-01	2.24885E+00	-1.23950E+00
-3.72740E-01	3.62785E-02	2.24955E+00	-1.22750E+00
-3.16663E-01	3.86605E-01	2.25024E+00	-1.21551E+00
