jMRUI Data Textfile
 
Filename: NAAG.txt
 
PointsInDataset: 2048
DatasetsInFile: 1
SamplingInterval: 5.00000E-01
ZeroOrderPhase: 0E0
BeginTime: 0E0
TransmitterFrequency: 1.27740E+08
MagneticField: 0E0
TypeOfNucleus: 0E0
NameOfPatient: 
DateOfExperiment: 
Spectrometer: Vespa-Simulation
AdditionalInfo: see 'readme' file for Vespa-Simulation output synopsis
 
  
Signal and FFT 
sig(real)	sig(imag)	fft(real)	fft(imag)
Signal 1 out of 1 in file
1.00000E+00	0.00000E+00	5.10642E-01	-8.46735E-01
4.77757E-01	-8.66024E-01	5.10599E-01	-8.43776E-01
-5.21746E-01	-8.27497E-01	5.10554E-01	-8.40840E-01
-9.65900E-01	5.65017E-02	5.10503E-01	-8.37920E-01
-4.12533E-01	8.63487E-01	5.10450E-01	-8.35013E-01
5.50709E-01	7.69801E-01	5.10397E-01	-8.32120E-01
9.29771E-01	-1.09150E-01	5.10343E-01	-8.29239E-01
3.49677E-01	-8.57351E-01	5.10291E-01	-8.26371E-01
-5.75426E-01	-7.12434E-01	5.10243E-01	-8.23516E-01
-8.91899E-01	1.57960E-01	5.10199E-01	-8.20680E-01
-2.89313E-01	8.47872E-01	5.10155E-01	-8.17864E-01
5.96057E-01	6.55629E-01	5.10107E-01	-8.15066E-01
8.52560E-01	-2.02969E-01	5.10055E-01	-8.12285E-01
2.31540E-01	-8.35307E-01	5.09994E-01	-8.09518E-01
-6.12777E-01	-5.99592E-01	5.09925E-01	-8.06760E-01
-8.12020E-01	2.44217E-01	5.09854E-01	-8.04003E-01
-1.76446E-01	8.19906E-01	5.09788E-01	-8.01251E-01
6.25760E-01	5.44522E-01	5.09730E-01	-7.98509E-01
7.70533E-01	-2.81769E-01	5.09678E-01	-7.95782E-01
1.24108E-01	-8.01916E-01	5.09627E-01	-7.93069E-01
-6.35186E-01	-4.90601E-01	5.09579E-01	-7.90368E-01
-7.28337E-01	3.15698E-01	5.09536E-01	-7.87680E-01
-7.45650E-02	7.81584E-01	5.09496E-01	-7.85008E-01
6.41247E-01	4.37982E-01	5.09458E-01	-7.82351E-01
6.85662E-01	-3.46087E-01	5.09424E-01	-7.79710E-01
2.78601E-02	-7.59145E-01	5.09390E-01	-7.77089E-01
-6.44128E-01	-3.86814E-01	5.09350E-01	-7.74486E-01
-6.42726E-01	3.73027E-01	5.09300E-01	-7.71895E-01
1.59844E-02	7.34833E-01	5.09243E-01	-7.69306E-01
6.44017E-01	3.37233E-01	5.09193E-01	-7.66716E-01
5.99735E-01	-3.96619E-01	5.09159E-01	-7.64137E-01
-5.69545E-02	-7.08872E-01	5.09135E-01	-7.61581E-01
-6.41113E-01	-2.89339E-01	5.09109E-01	-7.59050E-01
-5.56874E-01	4.16981E-01	5.09076E-01	-7.56537E-01
9.50715E-02	6.81481E-01	5.09035E-01	-7.54040E-01
6.35598E-01	2.43252E-01	5.08984E-01	-7.51552E-01
5.14327E-01	-4.34224E-01	5.08926E-01	-7.49069E-01
-1.30331E-01	-6.52872E-01	5.08867E-01	-7.46589E-01
-6.27667E-01	-1.99049E-01	5.08810E-01	-7.44115E-01
-4.72250E-01	4.48482E-01	5.08756E-01	-7.41646E-01
1.62771E-01	6.23246E-01	5.08707E-01	-7.39184E-01
6.17512E-01	1.56791E-01	5.08665E-01	-7.36732E-01
4.30809E-01	-4.59869E-01	5.08628E-01	-7.34293E-01
-1.92441E-01	-5.92795E-01	5.08593E-01	-7.31869E-01
-6.05313E-01	-1.16558E-01	5.08556E-01	-7.29457E-01
-3.90130E-01	4.68533E-01	5.08522E-01	-7.27052E-01
2.19369E-01	5.61708E-01	5.08494E-01	-7.24659E-01
5.91258E-01	7.83853E-02	5.08471E-01	-7.22283E-01
3.50357E-01	-4.74597E-01	5.08445E-01	-7.19924E-01
-2.43623E-01	-5.30161E-01	5.08418E-01	-7.17577E-01
-5.75525E-01	-4.22997E-02	5.08390E-01	-7.15244E-01
-3.11597E-01	4.78207E-01	5.08356E-01	-7.12926E-01
2.65276E-01	4.98315E-01	5.08315E-01	-7.10615E-01
5.58290E-01	8.34240E-03	5.08272E-01	-7.08308E-01
2.73947E-01	-4.79509E-01	5.08231E-01	-7.06009E-01
-2.84383E-01	-4.66336E-01	5.08190E-01	-7.03719E-01
-5.39723E-01	2.34917E-02	5.08147E-01	-7.01434E-01
-2.37516E-01	4.78635E-01	5.08110E-01	-6.99156E-01
3.01031E-01	4.34367E-01	5.08079E-01	-6.96889E-01
5.19992E-01	-5.31829E-02	5.08046E-01	-6.94638E-01
2.02375E-01	-4.75732E-01	5.08010E-01	-6.92394E-01
-3.15313E-01	-4.02544E-01	5.07975E-01	-6.90155E-01
-4.99256E-01	8.07469E-02	5.07947E-01	-6.87924E-01
-1.68590E-01	4.70946E-01	5.07923E-01	-6.85709E-01
3.27309E-01	3.70998E-01	5.07898E-01	-6.83508E-01
4.77670E-01	-1.06199E-01	5.07871E-01	-6.81319E-01
1.36235E-01	-4.64412E-01	5.07840E-01	-6.79141E-01
-3.37108E-01	-3.39856E-01	5.07805E-01	-6.76973E-01
-4.55378E-01	1.29579E-01	5.07767E-01	-6.74810E-01
-1.05352E-01	4.56273E-01	5.07728E-01	-6.72651E-01
3.44813E-01	3.09222E-01	5.07694E-01	-6.70500E-01
4.32529E-01	-1.50887E-01	5.07660E-01	-6.68360E-01
7.59818E-02	-4.46666E-01	5.07622E-01	-6.66229E-01
-3.50525E-01	-2.79197E-01	5.07582E-01	-6.64101E-01
-4.09255E-01	1.70178E-01	5.07547E-01	-6.61978E-01
-4.81424E-02	4.35729E-01	5.07515E-01	-6.59863E-01
3.54346E-01	2.49873E-01	5.07486E-01	-6.57756E-01
3.85685E-01	-1.87497E-01	5.07461E-01	-6.55657E-01
2.18838E-02	-4.23591E-01	5.07442E-01	-6.53571E-01
-3.56386E-01	-2.21322E-01	5.07422E-01	-6.51502E-01
-3.61941E-01	2.02893E-01	5.07394E-01	-6.49444E-01
2.79365E-03	4.10383E-01	5.07362E-01	-6.47385E-01
3.56738E-01	1.93641E-01	5.07340E-01	-6.45332E-01
3.38136E-01	-2.16422E-01	5.07323E-01	-6.43298E-01
-2.58834E-02	-3.96231E-01	5.07295E-01	-6.41279E-01
-3.55513E-01	-1.66884E-01	5.07258E-01	-6.39260E-01
-3.14372E-01	2.28156E-01	5.07227E-01	-6.37241E-01
4.73863E-02	3.81258E-01	5.07201E-01	-6.35238E-01
3.52819E-01	1.41108E-01	5.07165E-01	-6.33246E-01
2.90762E-01	-2.38137E-01	5.07122E-01	-6.31246E-01
-6.73214E-02	-3.65578E-01	5.07097E-01	-6.29245E-01
-3.48760E-01	-1.16363E-01	5.07081E-01	-6.27270E-01
-2.67394E-01	2.46443E-01	5.07045E-01	-6.25308E-01
8.56795E-02	3.49308E-01	5.07008E-01	-6.23327E-01
3.43441E-01	9.26918E-02	5.07004E-01	-6.21358E-01
2.44353E-01	-2.53146E-01	5.06990E-01	-6.19432E-01
-1.02492E-01	-3.32557E-01	5.06945E-01	-6.17495E-01
-3.36969E-01	-7.01174E-02	5.06925E-01	-6.15543E-01
-2.21719E-01	2.58319E-01	5.06921E-01	-6.13625E-01
1.17786E-01	3.15426E-01	5.06893E-01	-6.11726E-01
3.29440E-01	4.86891E-02	5.06858E-01	-6.09816E-01
1.99556E-01	-2.62043E-01	5.06837E-01	-6.07910E-01
-1.31590E-01	-2.98016E-01	5.06815E-01	-6.06025E-01
-3.20957E-01	-2.84167E-02	5.06779E-01	-6.04146E-01
-1.77947E-01	2.64382E-01	5.06741E-01	-6.02260E-01
1.43939E-01	2.80420E-01	5.06713E-01	-6.00378E-01
3.11618E-01	9.31495E-03	5.06687E-01	-5.98511E-01
1.56942E-01	-2.65420E-01	5.06652E-01	-5.96650E-01
-1.54882E-01	-2.62720E-01	5.06617E-01	-5.94784E-01
-3.01518E-01	8.60786E-03	5.06594E-01	-5.92921E-01
-1.36596E-01	2.65236E-01	5.06578E-01	-5.91072E-01
1.64443E-01	2.45012E-01	5.06557E-01	-5.89236E-01
2.90749E-01	-2.53580E-02	5.06534E-01	-5.87400E-01
1.16953E-01	-2.63908E-01	5.06519E-01	-5.85568E-01
-1.72678E-01	-2.27367E-01	5.06512E-01	-5.83750E-01
-2.79402E-01	4.09195E-02	5.06505E-01	-5.81949E-01
-9.80551E-02	2.61517E-01	5.06491E-01	-5.80162E-01
1.79635E-01	2.09858E-01	5.06470E-01	-5.78384E-01
2.67563E-01	-5.53093E-02	5.06439E-01	-5.76615E-01
7.99288E-02	-2.58141E-01	5.06394E-01	-5.74845E-01
-1.85366E-01	-1.92553E-01	5.06345E-01	-5.73064E-01
-2.55315E-01	6.85396E-02	5.06306E-01	-5.71274E-01
-6.26193E-02	2.53854E-01	5.06280E-01	-5.69488E-01
1.89929E-01	1.75509E-01	5.06264E-01	-5.67712E-01
2.42736E-01	-8.06267E-02	5.06254E-01	-5.65947E-01
4.61422E-02	-2.48736E-01	5.06248E-01	-5.64196E-01
-1.93368E-01	-1.58794E-01	5.06239E-01	-5.62459E-01
-2.29901E-01	9.15982E-02	5.06224E-01	-5.60731E-01
-3.05086E-02	2.42862E-01	5.06207E-01	-5.59006E-01
1.95741E-01	1.42461E-01	5.06193E-01	-5.57287E-01
2.16890E-01	-1.01456E-01	5.06178E-01	-5.55579E-01
1.57550E-02	-2.36304E-01	5.06158E-01	-5.53879E-01
-1.97119E-01	-1.26538E-01	5.06134E-01	-5.52183E-01
-2.03759E-01	1.10257E-01	5.06108E-01	-5.50490E-01
-1.86032E-03	2.29136E-01	5.06082E-01	-5.48802E-01
1.97549E-01	1.11081E-01	5.06053E-01	-5.47119E-01
1.90578E-01	-1.18015E-01	5.06022E-01	-5.45437E-01
-1.11414E-02	-2.21428E-01	5.05992E-01	-5.43755E-01
-1.97086E-01	-9.61383E-02	5.05967E-01	-5.42075E-01
-1.77416E-01	1.24752E-01	5.05947E-01	-5.40401E-01
2.32780E-02	2.13247E-01	5.05929E-01	-5.38735E-01
1.95799E-01	8.17193E-02	5.05914E-01	-5.37076E-01
1.64314E-01	-1.30526E-01	5.05899E-01	-5.35424E-01
-3.45383E-02	-2.04659E-01	5.05884E-01	-5.33780E-01
-1.93737E-01	-6.78770E-02	5.05869E-01	-5.32143E-01
-1.51341E-01	1.35354E-01	5.05853E-01	-5.30510E-01
4.49169E-02	1.95731E-01	5.05839E-01	-5.28884E-01
1.90967E-01	5.46110E-02	5.05825E-01	-5.27269E-01
1.38529E-01	-1.39293E-01	5.05805E-01	-5.25661E-01
-5.44491E-02	-1.86517E-01	5.05781E-01	-5.24055E-01
-1.87542E-01	-4.19540E-02	5.05757E-01	-5.22452E-01
-1.25940E-01	1.42365E-01	5.05732E-01	-5.20854E-01
6.31243E-02	1.77083E-01	5.05703E-01	-5.19258E-01
1.83516E-01	2.99338E-02	5.05675E-01	-5.17660E-01
1.13598E-01	-1.44629E-01	5.05651E-01	-5.16062E-01
-7.09815E-02	-1.67476E-01	5.05635E-01	-5.14470E-01
-1.78950E-01	-1.85395E-02	5.05622E-01	-5.12886E-01
-1.01549E-01	1.46119E-01	5.05610E-01	-5.11310E-01
7.80278E-02	1.57752E-01	5.05597E-01	-5.09742E-01
1.73895E-01	7.80281E-03	5.05583E-01	-5.08177E-01
8.98358E-02	-1.46870E-01	5.05571E-01	-5.06616E-01
-8.42748E-02	-1.47968E-01	5.05564E-01	-5.05059E-01
-1.68406E-01	2.29294E-03	5.05564E-01	-5.03515E-01
-7.84703E-02	1.46940E-01	5.05560E-01	-5.01989E-01
8.97650E-02	1.38158E-01	5.05542E-01	-5.00472E-01
1.62534E-01	-1.17341E-02	5.05514E-01	-4.98952E-01
6.74976E-02	-1.46361E-01	5.05487E-01	-4.97426E-01
-9.45055E-02	-1.28378E-01	5.05464E-01	-4.95905E-01
-1.56329E-01	2.05116E-02	5.05441E-01	-4.94389E-01
-5.69226E-02	1.45185E-01	5.05416E-01	-4.92875E-01
9.85395E-02	1.18659E-01	5.05392E-01	-4.91363E-01
1.49839E-01	-2.86489E-02	5.05369E-01	-4.89855E-01
4.67747E-02	-1.43452E-01	5.05344E-01	-4.88350E-01
-1.01880E-01	-1.09048E-01	5.05319E-01	-4.86843E-01
-1.43112E-01	3.61328E-02	5.05304E-01	-4.85334E-01
-3.70797E-02	1.41201E-01	5.05299E-01	-4.83836E-01
1.04570E-01	9.95709E-02	5.05296E-01	-4.82351E-01
1.36189E-01	-4.29902E-02	5.05289E-01	-4.80876E-01
2.78336E-02	-1.38482E-01	5.05279E-01	-4.79407E-01
-1.06632E-01	-9.02645E-02	5.05267E-01	-4.77945E-01
-1.29115E-01	4.92224E-02	5.05250E-01	-4.76487E-01
-1.90651E-02	1.35332E-01	5.05230E-01	-4.75032E-01
1.08093E-01	8.11656E-02	5.05209E-01	-4.73579E-01
1.21933E-01	-5.48346E-02	5.05186E-01	-4.72129E-01
1.07651E-02	-1.31795E-01	5.05161E-01	-4.70681E-01
-1.08995E-01	-7.22877E-02	5.05134E-01	-4.69232E-01
-1.14675E-01	5.98571E-02	5.05109E-01	-4.67782E-01
-2.94813E-03	1.27909E-01	5.05087E-01	-4.66331E-01
1.09360E-01	6.36684E-02	5.05070E-01	-4.64882E-01
1.07385E-01	-6.42914E-02	5.05058E-01	-4.63434E-01
-4.37486E-03	-1.23714E-01	5.05055E-01	-4.61989E-01
