jMRUI Data Textfile
 
Filename: PCho.txt
 
PointsInDataset: 2048
DatasetsInFile: 1
SamplingInterval: 5.00000E-01
ZeroOrderPhase: 0E0
BeginTime: 0E0
TransmitterFrequency: 1.27740E+08
MagneticField: 0E0
TypeOfNucleus: 0E0
NameOfPatient: 
DateOfExperiment: 
Spectrometer: Vespa-Simulation
AdditionalInfo: see 'readme' file for Vespa-Simulation output synopsis
 
  
Signal and FFT 
sig(real)	sig(imag)	fft(real)	fft(imag)
Signal 1 out of 1 in file
9.00000E+00	-1.75072E-16	4.78413E+00	-1.45745E+01
7.35307E+00	-5.01703E+00	4.78128E+00	-1.44955E+01
3.21078E+00	-8.19790E+00	4.77855E+00	-1.44173E+01
-1.94666E+00	-8.48759E+00	4.77589E+00	-1.43399E+01
-6.32182E+00	-5.84926E+00	4.77325E+00	-1.42633E+01
-8.42563E+00	-1.25482E+00	4.77062E+00	-1.41875E+01
-7.58330E+00	3.67165E+00	4.76801E+00	-1.41124E+01
-4.14886E+00	7.22705E+00	4.76543E+00	-1.40379E+01
6.39058E-01	8.21733E+00	4.76292E+00	-1.39642E+01
5.10282E+00	6.35739E+00	4.76048E+00	-1.38911E+01
7.71296E+00	2.34948E+00	4.75810E+00	-1.38188E+01
7.61126E+00	-2.38003E+00	4.75574E+00	-1.37472E+01
4.89171E+00	-6.18738E+00	4.75339E+00	-1.36763E+01
5.47424E-01	-7.78200E+00	4.75105E+00	-1.36060E+01
-3.89081E+00	-6.66311E+00	4.74873E+00	-1.35364E+01
-6.89315E+00	-3.27491E+00	4.74641E+00	-1.34674E+01
-7.45734E+00	1.16697E+00	4.74411E+00	-1.33989E+01
-5.44218E+00	5.11050E+00	4.74188E+00	-1.33311E+01
-1.59752E+00	7.20903E+00	4.73973E+00	-1.32639E+01
2.71348E+00	6.78036E+00	4.73762E+00	-1.31973E+01
5.99663E+00	4.02699E+00	4.73554E+00	-1.31314E+01
7.14413E+00	-5.27294E-02	4.73348E+00	-1.30660E+01
5.80741E+00	-4.02556E+00	4.73141E+00	-1.30012E+01
2.50066E+00	-6.52623E+00	4.72937E+00	-1.29370E+01
-1.59498E+00	-6.72597E+00	4.72738E+00	-1.28733E+01
-5.05248E+00	-4.60605E+00	4.72546E+00	-1.28102E+01
-6.69555E+00	-9.46679E-01	4.72360E+00	-1.27476E+01
-5.99803E+00	2.95897E+00	4.72176E+00	-1.26857E+01
-3.25097E+00	5.76109E+00	4.71992E+00	-1.26243E+01
5.55400E-01	6.51910E+00	4.71807E+00	-1.25634E+01
4.08782E+00	5.01655E+00	4.71622E+00	-1.25031E+01
6.13625E+00	1.81981E+00	4.71434E+00	-1.24433E+01
6.02779E+00	-1.93388E+00	4.71242E+00	-1.23839E+01
3.84675E+00	-4.94015E+00	4.71052E+00	-1.23250E+01
3.88904E-01	-6.18050E+00	4.70870E+00	-1.22665E+01
-3.12753E+00	-5.26633E+00	4.70700E+00	-1.22085E+01
-5.49090E+00	-2.55923E+00	4.70536E+00	-1.21510E+01
-5.91274E+00	9.70019E-01	4.70368E+00	-1.20942E+01
-4.29004E+00	4.08853E+00	4.70192E+00	-1.20377E+01
-1.22582E+00	5.73184E+00	4.70012E+00	-1.19817E+01
2.19366E+00	5.36630E+00	4.69841E+00	-1.19259E+01
4.78369E+00	3.16142E+00	4.69684E+00	-1.18706E+01
5.67064E+00	-8.37124E-02	4.69538E+00	-1.18158E+01
4.58626E+00	-3.22951E+00	4.69396E+00	-1.17616E+01
1.94677E+00	-5.19512E+00	4.69253E+00	-1.17079E+01
-1.30552E+00	-5.32966E+00	4.69103E+00	-1.16546E+01
-4.03761E+00	-3.62664E+00	4.68944E+00	-1.16018E+01
-5.32041E+00	-7.12275E-01	4.68779E+00	-1.15493E+01
-4.74385E+00	2.38395E+00	4.68620E+00	-1.14971E+01
-2.54687E+00	4.59214E+00	4.68470E+00	-1.14452E+01
4.79102E-01	5.17155E+00	4.68328E+00	-1.13938E+01
3.27427E+00	3.95814E+00	4.68190E+00	-1.13429E+01
4.88157E+00	1.40856E+00	4.68050E+00	-1.12923E+01
4.77349E+00	-1.57038E+00	4.67907E+00	-1.12422E+01
3.02455E+00	-3.94401E+00	4.67761E+00	-1.11924E+01
2.72533E-01	-4.90831E+00	4.67617E+00	-1.11429E+01
-2.51349E+00	-4.16203E+00	4.67481E+00	-1.10937E+01
-4.37364E+00	-1.99930E+00	4.67355E+00	-1.10449E+01
-4.68780E+00	8.04602E-01	4.67241E+00	-1.09965E+01
-3.38142E+00	3.27060E+00	4.67135E+00	-1.09485E+01
-9.39494E-01	4.55706E+00	4.67027E+00	-1.09011E+01
1.77278E+00	4.24686E+00	4.66911E+00	-1.08541E+01
3.81576E+00	2.48151E+00	4.66783E+00	-1.08074E+01
4.50081E+00	-9.97048E-02	4.66645E+00	-1.07610E+01
3.62160E+00	-2.59045E+00	4.66505E+00	-1.07149E+01
1.51492E+00	-4.13524E+00	4.66371E+00	-1.06689E+01
-1.06751E+00	-4.22300E+00	4.66249E+00	-1.06233E+01
-3.22629E+00	-2.85512E+00	4.66133E+00	-1.05781E+01
-4.22748E+00	-5.34138E-01	4.66016E+00	-1.05332E+01
-3.75168E+00	1.92013E+00	4.65892E+00	-1.04887E+01
-1.99475E+00	3.66014E+00	4.65763E+00	-1.04445E+01
4.10635E-01	4.10233E+00	4.65632E+00	-1.04004E+01
2.62226E+00	3.12278E+00	4.65511E+00	-1.03565E+01
3.88320E+00	1.08953E+00	4.65410E+00	-1.03128E+01
3.77995E+00	-1.27455E+00	4.65336E+00	-1.02695E+01
2.37773E+00	-3.14846E+00	4.65282E+00	-1.02267E+01
1.87604E-01	-3.89777E+00	4.65231E+00	-1.01845E+01
-2.01955E+00	-3.28907E+00	4.65160E+00	-1.01430E+01
-3.48348E+00	-1.56138E+00	4.65049E+00	-1.01019E+01
-3.71641E+00	6.66229E-01	4.64895E+00	-1.00609E+01
-2.66500E+00	2.61596E+00	4.64720E+00	-1.00198E+01
-7.19039E-01	3.62287E+00	4.64558E+00	-9.97846E+00
1.43212E+00	3.36072E+00	4.64437E+00	-9.93721E+00
3.04344E+00	1.94747E+00	4.64346E+00	-9.89640E+00
3.57212E+00	-1.05489E-01	4.64251E+00	-9.85598E+00
2.85963E+00	-2.07748E+00	4.64161E+00	-9.81567E+00
1.17823E+00	-3.29142E+00	4.64106E+00	-9.77556E+00
-8.72099E-01	-3.34593E+00	4.64085E+00	-9.73604E+00
-2.57771E+00	-2.24749E+00	4.64066E+00	-9.69727E+00
-3.35887E+00	-3.99250E-01	4.64014E+00	-9.65913E+00
-2.96677E+00	1.54622E+00	4.63917E+00	-9.62132E+00
-1.56199E+00	2.91706E+00	4.63781E+00	-9.58354E+00
3.49971E-01	3.25399E+00	4.63630E+00	-9.54564E+00
2.09987E+00	2.46343E+00	4.63488E+00	-9.50763E+00
3.08883E+00	8.42132E-01	4.63372E+00	-9.46965E+00
2.99303E+00	-1.03385E+00	4.63284E+00	-9.43190E+00
1.86899E+00	-2.51314E+00	4.63216E+00	-9.39452E+00
1.26018E-01	-3.09512E+00	4.63156E+00	-9.35755E+00
-1.62235E+00	-2.59902E+00	4.63090E+00	-9.32096E+00
-2.77430E+00	-1.21902E+00	4.63015E+00	-9.28465E+00
-2.94616E+00	5.50601E-01	4.62935E+00	-9.24852E+00
-2.10009E+00	2.09219E+00	4.62857E+00	-9.21259E+00
-5.49561E-01	2.88001E+00	4.62783E+00	-9.17688E+00
1.15648E+00	2.65933E+00	4.62711E+00	-9.14143E+00
2.42730E+00	1.52800E+00	4.62639E+00	-9.10625E+00
2.83491E+00	-1.04645E-01	4.62563E+00	-9.07133E+00
2.25779E+00	-1.66582E+00	4.62480E+00	-9.03665E+00
9.16006E-01	-2.61960E+00	4.62391E+00	-9.00214E+00
-7.11924E-01	-2.65085E+00	4.62297E+00	-8.96776E+00
-2.05932E+00	-1.76895E+00	4.62205E+00	-8.93350E+00
-2.66858E+00	-2.97261E-01	4.62119E+00	-8.89937E+00
-2.34595E+00	1.24474E+00	4.62042E+00	-8.86542E+00
-1.22276E+00	2.32472E+00	4.61973E+00	-8.83170E+00
2.96851E-01	2.58094E+00	4.61909E+00	-8.79824E+00
1.68128E+00	1.94316E+00	4.61845E+00	-8.76502E+00
2.45683E+00	6.50329E-01	4.61781E+00	-8.73202E+00
2.36979E+00	-8.38182E-01	4.61715E+00	-8.69923E+00
1.46888E+00	-2.00585E+00	4.61651E+00	-8.66663E+00
8.19152E-02	-2.45762E+00	4.61588E+00	-8.63423E+00
-1.30308E+00	-2.05354E+00	4.61526E+00	-8.60207E+00
-2.20935E+00	-9.51407E-01	4.61459E+00	-8.57011E+00
-2.33541E+00	4.54307E-01	4.61391E+00	-8.53831E+00
-1.65479E+00	1.67305E+00	4.61323E+00	-8.50668E+00
-4.19316E-01	2.28936E+00	4.61256E+00	-8.47524E+00
9.33568E-01	2.10419E+00	4.61188E+00	-8.44398E+00
1.93571E+00	1.19871E+00	4.61120E+00	-8.41288E+00
2.24971E+00	-9.97229E-02	4.61052E+00	-8.38194E+00
1.78243E+00	-1.33558E+00	4.60984E+00	-8.35119E+00
7.11726E-01	-2.08480E+00	4.60912E+00	-8.32057E+00
-5.80577E-01	-2.10007E+00	4.60844E+00	-8.29003E+00
-1.64503E+00	-1.39212E+00	4.60790E+00	-8.25963E+00
-2.12003E+00	-2.20343E-01	4.60747E+00	-8.22952E+00
-1.85491E+00	1.00180E+00	4.60701E+00	-8.19972E+00
-9.57008E-01	1.85250E+00	4.60642E+00	-8.17016E+00
2.50802E-01	2.04698E+00	4.60570E+00	-8.14068E+00
1.34600E+00	1.53258E+00	4.60497E+00	-8.11123E+00
1.95403E+00	5.01791E-01	4.60436E+00	-8.08184E+00
1.87622E+00	-6.79213E-01	4.60389E+00	-8.05269E+00
1.15424E+00	-1.60082E+00	4.60342E+00	-8.02382E+00
5.06384E-02	-1.95131E+00	4.60285E+00	-7.99515E+00
-1.04640E+00	-1.62246E+00	4.60221E+00	-7.96660E+00
-1.75935E+00	-7.42238E-01	4.60156E+00	-7.93814E+00
-1.85116E+00	3.74346E-01	4.60092E+00	-7.90978E+00
-1.30372E+00	1.33778E+00	4.60032E+00	-7.88153E+00
-3.19500E-01	1.81972E+00	4.59979E+00	-7.85340E+00
7.53375E-01	1.66482E+00	4.59933E+00	-7.82545E+00
1.54357E+00	9.40193E-01	4.59891E+00	-7.79771E+00
1.78522E+00	-9.23274E-02	4.59847E+00	-7.77017E+00
1.40706E+00	-1.07061E+00	4.59800E+00	-7.74279E+00
5.52759E-01	-1.65906E+00	4.59750E+00	-7.71556E+00
-4.73242E-01	-1.66359E+00	4.59699E+00	-7.68845E+00
-1.31396E+00	-1.09543E+00	4.59647E+00	-7.66146E+00
-1.68416E+00	-1.62497E-01	4.59599E+00	-7.63457E+00
-1.46655E+00	8.06077E-01	4.59558E+00	-7.60783E+00
-7.48822E-01	1.47610E+00	4.59518E+00	-7.58130E+00
2.11066E-01	1.62341E+00	4.59474E+00	-7.55494E+00
1.07742E+00	1.20867E+00	4.59427E+00	-7.52872E+00
1.55403E+00	3.86880E-01	4.59379E+00	-7.50260E+00
1.48532E+00	-5.50218E-01	4.59330E+00	-7.47662E+00
9.06860E-01	-1.27748E+00	4.59282E+00	-7.45074E+00
2.87747E-02	-1.54923E+00	4.59237E+00	-7.42498E+00
-8.40116E-01	-1.28177E+00	4.59196E+00	-7.39936E+00
-1.40090E+00	-5.78885E-01	4.59156E+00	-7.37392E+00
-1.46725E+00	3.07988E-01	4.59114E+00	-7.34864E+00
-1.02706E+00	1.06955E+00	4.59069E+00	-7.32352E+00
-2.42884E-01	1.44636E+00	4.59019E+00	-7.29854E+00
6.07768E-01	1.31711E+00	4.58963E+00	-7.27367E+00
1.23078E+00	7.37283E-01	4.58901E+00	-7.24885E+00
1.41655E+00	-8.37381E-02	4.58840E+00	-7.22406E+00
1.11065E+00	-8.58075E-01	4.58786E+00	-7.19934E+00
4.29065E-01	-1.32018E+00	4.58738E+00	-7.17474E+00
-3.85393E-01	-1.31778E+00	4.58691E+00	-7.15027E+00
-1.04947E+00	-8.61790E-01	4.58647E+00	-7.12591E+00
-1.33782E+00	-1.19131E-01	4.58606E+00	-7.10167E+00
-1.15941E+00	6.48441E-01	4.58568E+00	-7.07755E+00
-5.85769E-01	1.17610E+00	4.58532E+00	-7.05357E+00
1.77045E-01	1.28741E+00	4.58499E+00	-7.02973E+00
8.62320E-01	9.53128E-01	4.58467E+00	-7.00605E+00
1.23584E+00	2.98006E-01	4.58434E+00	-6.98253E+00
1.17581E+00	-4.45453E-01	4.58394E+00	-6.95916E+00
7.12323E-01	-1.01940E+00	4.58346E+00	-6.93585E+00
1.37730E-02	-1.22994E+00	4.58298E+00	-6.91255E+00
-6.74380E-01	-1.01254E+00	4.58259E+00	-6.88928E+00
-1.11541E+00	-4.51314E-01	4.58233E+00	-6.86617E+00
-1.16288E+00	2.53067E-01	4.58209E+00	-6.84328E+00
-8.09007E-01	8.55010E-01	4.58182E+00	-6.82057E+00
-1.84334E-01	1.14953E+00	4.58148E+00	-6.79801E+00
4.90208E-01	1.04193E+00	4.58107E+00	-6.77556E+00
9.81296E-01	5.78045E-01	4.58059E+00	-6.75318E+00
1.12396E+00	-7.47621E-02	4.58008E+00	-6.73084E+00
8.76599E-01	-6.87633E-01	4.57958E+00	-6.70855E+00
