jMRUI Data Textfile
 
Filename: PE.txt
 
PointsInDataset: 2048
DatasetsInFile: 1
SamplingInterval: 5.00000E-01
ZeroOrderPhase: 0E0
BeginTime: 0E0
TransmitterFrequency: 1.27740E+08
MagneticField: 0E0
TypeOfNucleus: 0E0
NameOfPatient: 
DateOfExperiment: 
Spectrometer: Vespa-Simulation
AdditionalInfo: see 'readme' file for Vespa-Simulation output synopsis
 
  
Signal and FFT 
sig(real)	sig(imag)	fft(real)	fft(imag)
Signal 1 out of 1 in file
2.41591E+00	8.72545E-05	1.46025E+00	-6.10070E+00
2.13394E+00	-1.01164E+00	1.45490E+00	-6.04621E+00
1.42736E+00	-1.74591E+00	1.44974E+00	-5.99272E+00
5.04703E-01	-2.04007E+00	1.44474E+00	-5.94022E+00
-3.79631E-01	-1.86881E+00	1.43990E+00	-5.88866E+00
-1.00687E+00	-1.34238E+00	1.43521E+00	-5.83803E+00
-1.25876E+00	-6.61442E-01	1.43066E+00	-5.78829E+00
-1.14540E+00	-4.56393E-02	1.42625E+00	-5.73941E+00
-7.89143E-01	3.38553E-01	1.42197E+00	-5.69137E+00
-3.72678E-01	4.26876E-01	1.41782E+00	-5.64415E+00
-7.10748E-02	2.68240E-01	1.41381E+00	-5.59773E+00
8.30281E-03	-3.57222E-03	1.40991E+00	-5.55210E+00
-1.41876E-01	-2.25296E-01	1.40612E+00	-5.50722E+00
-4.33628E-01	-2.66046E-01	1.40244E+00	-5.46308E+00
-7.21577E-01	-7.40409E-02	1.39886E+00	-5.41965E+00
-8.59133E-01	3.07067E-01	1.39539E+00	-5.37693E+00
-7.52570E-01	7.56278E-01	1.39202E+00	-5.33489E+00
-3.94503E-01	1.11976E+00	1.38874E+00	-5.29351E+00
1.33802E-01	1.26535E+00	1.38555E+00	-5.25278E+00
6.90679E-01	1.12785E+00	1.38245E+00	-5.21268E+00
1.12180E+00	7.30230E-01	1.37944E+00	-5.17321E+00
1.31057E+00	1.74675E-01	1.37650E+00	-5.13434E+00
1.21408E+00	-3.92149E-01	1.37364E+00	-5.09605E+00
8.73475E-01	-8.26687E-01	1.37085E+00	-5.05834E+00
3.96566E-01	-1.03258E+00	1.36813E+00	-5.02118E+00
-7.97551E-02	-9.86911E-01	1.36549E+00	-4.98457E+00
-4.33893E-01	-7.41195E-01	1.36292E+00	-4.94849E+00
-5.95601E-01	-3.98409E-01	1.36041E+00	-4.91294E+00
-5.62525E-01	-7.54196E-02	1.35796E+00	-4.87790E+00
-3.93272E-01	1.35781E-01	1.35558E+00	-4.84335E+00
-1.81134E-01	1.95115E-01	1.35325E+00	-4.80929E+00
-1.87858E-02	1.21664E-01	1.35099E+00	-4.77571E+00
3.35141E-02	-1.96275E-02	1.34877E+00	-4.74260E+00
-3.42082E-02	-1.45686E-01	1.34660E+00	-4.70994E+00
-1.82646E-01	-1.86912E-01	1.34449E+00	-4.67771E+00
-3.41257E-01	-1.11578E-01	1.34244E+00	-4.64593E+00
-4.35928E-01	6.47705E-02	1.34044E+00	-4.61457E+00
-4.16046E-01	2.87033E-01	1.33849E+00	-4.58365E+00
-2.71811E-01	4.81535E-01	1.33657E+00	-4.55313E+00
-3.65032E-02	5.82285E-01	1.33468E+00	-4.52302E+00
2.25989E-01	5.53158E-01	1.33284E+00	-4.49328E+00
4.43312E-01	3.98873E-01	1.33104E+00	-4.46392E+00
5.58234E-01	1.61827E-01	1.32929E+00	-4.43494E+00
5.45909E-01	-9.31979E-02	1.32759E+00	-4.40632E+00
4.19466E-01	-3.00434E-01	1.32592E+00	-4.37808E+00
2.23076E-01	-4.13280E-01	1.32429E+00	-4.35020E+00
1.57988E-02	-4.16599E-01	1.32267E+00	-4.32266E+00
-1.47791E-01	-3.28019E-01	1.32109E+00	-4.29545E+00
-2.33548E-01	-1.88740E-01	1.31956E+00	-4.26857E+00
-2.35503E-01	-4.79644E-02	1.31806E+00	-4.24201E+00
-1.73801E-01	5.34023E-02	1.31659E+00	-4.21577E+00
-8.45327E-02	9.43419E-02	1.31517E+00	-4.18986E+00
-5.75641E-03	7.74428E-02	1.31377E+00	-4.16426E+00
3.52534E-02	2.44104E-02	1.31239E+00	-4.13897E+00
2.95049E-02	-3.40994E-02	1.31104E+00	-4.11397E+00
-1.33229E-02	-7.02600E-02	1.30971E+00	-4.08926E+00
-7.08122E-02	-6.83337E-02	1.30840E+00	-4.06483E+00
-1.17264E-01	-2.86284E-02	1.30713E+00	-4.04068E+00
-1.33067E-01	3.44926E-02	1.30588E+00	-4.01680E+00
-1.10809E-01	9.91070E-02	1.30466E+00	-3.99320E+00
-5.65472E-02	1.43955E-01	1.30347E+00	-3.96986E+00
1.35825E-02	1.55430E-01	1.30229E+00	-3.94679E+00
7.96129E-02	1.31151E-01	1.30114E+00	-3.92397E+00
1.24418E-01	7.94426E-02	1.30000E+00	-3.90140E+00
1.38521E-01	1.55095E-02	1.29889E+00	-3.87908E+00
1.21825E-01	-4.39461E-02	1.29780E+00	-3.85699E+00
8.21957E-02	-8.56758E-02	1.29674E+00	-3.83513E+00
3.19599E-02	-1.02879E-01	1.29571E+00	-3.81351E+00
-1.61699E-02	-9.57627E-02	1.29470E+00	-3.79214E+00
-5.23531E-02	-6.99969E-02	1.29371E+00	-3.77101E+00
-7.12777E-02	-3.40942E-02	1.29273E+00	-3.75010E+00
-7.21521E-02	3.17729E-03	1.29176E+00	-3.72942E+00
-5.76264E-02	3.45884E-02	1.29079E+00	-3.70895E+00
-3.23670E-02	5.52281E-02	1.28983E+00	-3.68867E+00
-1.90408E-03	6.25098E-02	1.28889E+00	-3.66859E+00
2.80595E-02	5.59260E-02	1.28799E+00	-3.64870E+00
5.20481E-02	3.69050E-02	1.28711E+00	-3.62902E+00
6.52837E-02	8.84238E-03	1.28626E+00	-3.60955E+00
6.44528E-02	-2.29290E-02	1.28542E+00	-3.59030E+00
4.87261E-02	-5.16443E-02	1.28456E+00	-3.57124E+00
2.06085E-02	-7.03211E-02	1.28372E+00	-3.55234E+00
-1.39367E-02	-7.35786E-02	1.28291E+00	-3.53361E+00
-4.64762E-02	-5.95255E-02	1.28214E+00	-3.51507E+00
-6.82339E-02	-3.09716E-02	1.28139E+00	-3.49675E+00
-7.28094E-02	4.74292E-03	1.28063E+00	-3.47862E+00
-5.85595E-02	3.75234E-02	1.27986E+00	-3.46067E+00
-2.96864E-02	5.75673E-02	1.27909E+00	-3.44286E+00
4.61161E-03	5.87140E-02	1.27833E+00	-3.42521E+00
3.28876E-02	4.08909E-02	1.27760E+00	-3.40771E+00
4.52790E-02	1.06256E-02	1.27690E+00	-3.39038E+00
3.71555E-02	-2.07815E-02	1.27623E+00	-3.37323E+00
1.11843E-02	-4.09883E-02	1.27553E+00	-3.35626E+00
-2.30985E-02	-4.10428E-02	1.27483E+00	-3.33943E+00
-5.22537E-02	-1.89310E-02	1.27415E+00	-3.32273E+00
-6.35772E-02	1.91220E-02	1.27350E+00	-3.30617E+00
-4.98221E-02	6.02708E-02	1.27288E+00	-3.28977E+00
-1.22914E-02	8.91759E-02	1.27228E+00	-3.27355E+00
3.89330E-02	9.33466E-02	1.27168E+00	-3.25748E+00
8.78940E-02	6.78216E-02	1.27107E+00	-3.24157E+00
1.17951E-01	1.74659E-02	1.27045E+00	-3.22580E+00
1.17500E-01	-4.40443E-02	1.26984E+00	-3.21015E+00
8.42656E-02	-9.83896E-02	1.26923E+00	-3.19463E+00
2.65546E-02	-1.28581E-01	1.26864E+00	-3.17923E+00
-3.91057E-02	-1.24730E-01	1.26806E+00	-3.16396E+00
-9.31958E-02	-8.75741E-02	1.26750E+00	-3.14883E+00
-1.19635E-01	-2.84934E-02	1.26696E+00	-3.13383E+00
-1.11173E-01	3.41243E-02	1.26643E+00	-3.11897E+00
-7.18584E-02	8.09302E-02	1.26590E+00	-3.10423E+00
-1.56965E-02	9.80845E-02	1.26538E+00	-3.08963E+00
3.81006E-02	8.18768E-02	1.26486E+00	-3.07514E+00
7.16733E-02	3.98913E-02	1.26435E+00	-3.06078E+00
7.45839E-02	-1.17026E-02	1.26384E+00	-3.04653E+00
4.73409E-02	-5.38214E-02	1.26335E+00	-3.03240E+00
1.10806E-03	-7.11334E-02	1.26286E+00	-3.01840E+00
-4.62999E-02	-5.74022E-02	1.26238E+00	-3.00451E+00
-7.67173E-02	-1.76353E-02	1.26190E+00	-2.99073E+00
-7.80591E-02	3.36938E-02	1.26143E+00	-2.97706E+00
-4.86086E-02	7.77582E-02	1.26096E+00	-2.96350E+00
2.32132E-03	9.79947E-02	1.26050E+00	-2.95005E+00
5.75857E-02	8.59597E-02	1.26005E+00	-2.93671E+00
9.81451E-02	4.43525E-02	1.25961E+00	-2.92347E+00
1.09678E-01	-1.38456E-02	1.25917E+00	-2.91034E+00
8.75439E-02	-6.97738E-02	1.25874E+00	-2.89731E+00
3.84223E-02	-1.05142E-01	1.25831E+00	-2.88438E+00
-2.19562E-02	-1.08459E-01	1.25790E+00	-2.87155E+00
-7.41763E-02	-7.88990E-02	1.25749E+00	-2.85882E+00
-1.01693E-01	-2.65007E-02	1.25709E+00	-2.84621E+00
-9.63697E-02	3.13318E-02	1.25669E+00	-2.83369E+00
-6.10680E-02	7.57850E-02	1.25628E+00	-2.82127E+00
-8.47671E-03	9.29707E-02	1.25587E+00	-2.80893E+00
4.33955E-02	7.84732E-02	1.25548E+00	-2.79667E+00
7.73833E-02	3.85715E-02	1.25511E+00	-2.78451E+00
8.29381E-02	-1.21754E-02	1.25474E+00	-2.77245E+00
5.94827E-02	-5.61040E-02	1.25438E+00	-2.76049E+00
1.62843E-02	-7.85309E-02	1.25401E+00	-2.74863E+00
-3.10203E-02	-7.26446E-02	1.25363E+00	-2.73685E+00
-6.59700E-02	-4.15634E-02	1.25325E+00	-2.72513E+00
-7.69338E-02	3.05989E-03	1.25289E+00	-2.71350E+00
-6.09368E-02	4.53321E-02	1.25255E+00	-2.70194E+00
-2.43897E-02	7.06908E-02	1.25222E+00	-2.69048E+00
1.94120E-02	7.08814E-02	1.25190E+00	-2.67912E+00
5.50815E-02	4.65905E-02	1.25156E+00	-2.66785E+00
7.04967E-02	6.93052E-03	1.25122E+00	-2.65666E+00
6.08648E-02	-3.39509E-02	1.25088E+00	-2.64554E+00
3.01470E-02	-6.18773E-02	1.25054E+00	-2.63448E+00
-1.05762E-02	-6.75072E-02	1.25022E+00	-2.62350E+00
-4.70907E-02	-4.93612E-02	1.24991E+00	-2.61260E+00
-6.69932E-02	-1.40926E-02	1.24961E+00	-2.60178E+00
-6.38364E-02	2.60330E-02	1.24931E+00	-2.59105E+00
-3.91054E-02	5.74658E-02	1.24901E+00	-2.58040E+00
-1.43655E-03	6.99705E-02	1.24871E+00	-2.56982E+00
3.65398E-02	5.99241E-02	1.24840E+00	-2.55930E+00
6.25811E-02	3.12424E-02	1.24809E+00	-2.54885E+00
6.88505E-02	-6.25013E-03	1.24780E+00	-2.53847E+00
5.43016E-02	-4.03557E-02	1.24752E+00	-2.52816E+00
2.46549E-02	-6.06441E-02	1.24725E+00	-2.51792E+00
-9.87619E-03	-6.17760E-02	1.24698E+00	-2.50776E+00
-3.82226E-02	-4.49331E-02	1.24671E+00	-2.49767E+00
-5.21538E-02	-1.69866E-02	1.24643E+00	-2.48766E+00
-4.87834E-02	1.21755E-02	1.24615E+00	-2.47770E+00
-3.11115E-02	3.31583E-02	1.24587E+00	-2.46780E+00
-6.55836E-03	4.01251E-02	1.24560E+00	-2.45797E+00
1.58789E-02	3.24650E-02	1.24533E+00	-2.44819E+00
2.87858E-02	1.45568E-02	1.24508E+00	-2.43847E+00
2.87072E-02	-6.13620E-03	1.24484E+00	-2.42883E+00
1.69915E-02	-2.18681E-02	1.24461E+00	-2.41926E+00
-1.06794E-03	-2.72857E-02	1.24436E+00	-2.40976E+00
-1.83769E-02	-2.10728E-02	1.24411E+00	-2.40032E+00
-2.86119E-02	-6.07861E-03	1.24385E+00	-2.39094E+00
-2.83324E-02	1.19818E-02	1.24359E+00	-2.38160E+00
-1.79294E-02	2.66998E-02	1.24335E+00	-2.37231E+00
-1.19182E-03	3.31968E-02	1.24311E+00	-2.36308E+00
1.62380E-02	2.96353E-02	1.24290E+00	-2.35392E+00
2.88914E-02	1.75704E-02	1.24268E+00	-2.34482E+00
3.32512E-02	1.12397E-03	1.24246E+00	-2.33580E+00
2.86860E-02	-1.45959E-02	1.24222E+00	-2.32683E+00
1.73392E-02	-2.52378E-02	1.24197E+00	-2.31790E+00
3.11189E-03	-2.84853E-02	1.24174E+00	-2.30901E+00
-9.79413E-03	-2.45023E-02	1.24153E+00	-2.30017E+00
-1.82212E-02	-1.55033E-02	1.24133E+00	-2.29140E+00
-2.08467E-02	-4.72350E-03	1.24112E+00	-2.28269E+00
-1.82350E-02	4.76456E-03	1.24091E+00	-2.27405E+00
-1.22574E-02	1.09555E-02	1.24069E+00	-2.26545E+00
-5.20227E-03	1.32565E-02	1.24046E+00	-2.25689E+00
1.04240E-03	1.22792E-02	1.24025E+00	-2.24835E+00
5.44709E-03	9.26207E-03	1.24006E+00	-2.23988E+00
7.84504E-03	5.43861E-03	1.23989E+00	-2.23148E+00
8.59447E-03	1.62446E-03	1.23970E+00	-2.22314E+00
8.13780E-03	-1.84969E-03	1.23949E+00	-2.21486E+00
6.70171E-03	-4.91691E-03	1.23928E+00	-2.20660E+00
4.27444E-03	-7.44828E-03	1.23907E+00	-2.19838E+00
