jMRUI Data Textfile
 
Filename: Tau.txt
 
PointsInDataset: 2048
DatasetsInFile: 1
SamplingInterval: 5.00000E-01
ZeroOrderPhase: 0E0
BeginTime: 0E0
TransmitterFrequency: 1.27740E+08
MagneticField: 0E0
TypeOfNucleus: 0E0
NameOfPatient: 
DateOfExperiment: 
Spectrometer: Vespa-Simulation
AdditionalInfo: see 'readme' file for Vespa-Simulation output synopsis
 
  
Signal and FFT 
sig(real)	sig(imag)	fft(real)	fft(imag)
Signal 1 out of 1 in file
3.47829E+00	-1.78227E-06	1.85177E+00	-6.21354E+00
2.93827E+00	-1.79536E+00	1.85052E+00	-6.17683E+00
1.55296E+00	-3.02848E+00	1.84929E+00	-6.14052E+00
-2.50544E-01	-3.34939E+00	1.84808E+00	-6.10460E+00
-1.93142E+00	-2.68747E+00	1.84690E+00	-6.06907E+00
-3.00001E+00	-1.26541E+00	1.84575E+00	-6.03393E+00
-3.16275E+00	4.75827E-01	1.84462E+00	-5.99916E+00
-2.40364E+00	2.01560E+00	1.84351E+00	-5.96478E+00
-9.79402E-01	2.91155E+00	1.84240E+00	-5.93076E+00
6.67137E-01	2.92846E+00	1.84131E+00	-5.89709E+00
2.04630E+00	2.09988E+00	1.84023E+00	-5.86377E+00
2.76901E+00	7.06553E-01	1.83917E+00	-5.83079E+00
2.65775E+00	-8.18220E-01	1.83814E+00	-5.79815E+00
1.78882E+00	-2.02457E+00	1.83712E+00	-5.76584E+00
4.56650E-01	-2.58021E+00	1.83613E+00	-5.73388E+00
-9.25311E-01	-2.36240E+00	1.83514E+00	-5.70224E+00
-1.95381E+00	-1.48218E+00	1.83417E+00	-5.67092E+00
-2.35434E+00	-2.37417E-01	1.83321E+00	-5.63992E+00
-2.05416E+00	9.87154E-01	1.83225E+00	-5.60921E+00
-1.19027E+00	1.83940E+00	1.83132E+00	-5.57881E+00
-5.43217E-02	2.10144E+00	1.83040E+00	-5.54870E+00
1.00479E+00	1.74420E+00	1.82951E+00	-5.51889E+00
1.68832E+00	9.21600E-01	1.82863E+00	-5.48937E+00
1.83184E+00	-8.95045E-02	1.82777E+00	-5.46014E+00
1.44267E+00	-9.81292E-01	1.82692E+00	-5.43121E+00
6.82762E-01	-1.50859E+00	1.82608E+00	-5.40255E+00
-1.93088E-01	-1.55567E+00	1.82524E+00	-5.37417E+00
-9.21395E-01	-1.15830E+00	1.82441E+00	-5.34605E+00
-1.30883E+00	-4.78256E-01	1.82360E+00	-5.31819E+00
-1.28237E+00	2.57476E-01	1.82280E+00	-5.29059E+00
-8.98174E-01	8.31107E-01	1.82202E+00	-5.26324E+00
-3.10533E-01	1.09777E+00	1.82127E+00	-5.23616E+00
2.85485E-01	1.02033E+00	1.82052E+00	-5.20934E+00
7.17284E-01	6.67543E-01	1.81978E+00	-5.18277E+00
8.83811E-01	1.80078E-01	1.81904E+00	-5.15645E+00
7.76615E-01	-2.81272E-01	1.81830E+00	-5.13036E+00
4.69816E-01	-5.87159E-01	1.81757E+00	-5.10450E+00
8.56915E-02	-6.74657E-01	1.81686E+00	-5.07887E+00
-2.50066E-01	-5.56760E-01	1.81616E+00	-5.05347E+00
-4.47982E-01	-3.06584E-01	1.81548E+00	-5.02829E+00
-4.77024E-01	-2.46716E-02	1.81482E+00	-5.00335E+00
-3.64691E-01	1.97730E-01	1.81416E+00	-4.97864E+00
-1.77802E-01	3.06622E-01	1.81350E+00	-4.95416E+00
6.82216E-03	2.96420E-01	1.81283E+00	-4.92988E+00
1.30378E-01	2.02738E-01	1.81217E+00	-4.90580E+00
1.69306E-01	8.19494E-02	1.81152E+00	-4.88191E+00
1.37024E-01	-1.34312E-02	1.81091E+00	-4.85822E+00
7.16957E-02	-5.40779E-02	1.81031E+00	-4.83475E+00
1.63267E-02	-4.13614E-02	1.80972E+00	-4.81151E+00
-2.95782E-04	-1.64038E-03	1.80913E+00	-4.78847E+00
2.54732E-02	2.90130E-02	1.80852E+00	-4.76562E+00
7.29280E-02	2.26921E-02	1.80792E+00	-4.74295E+00
1.08276E-01	-2.72871E-02	1.80732E+00	-4.72046E+00
1.01146E-01	-1.03185E-01	1.80675E+00	-4.69814E+00
3.93478E-02	-1.70417E-01	1.80620E+00	-4.67602E+00
-6.41381E-02	-1.92528E-01	1.80566E+00	-4.65408E+00
-1.74755E-01	-1.47410E-01	1.80513E+00	-4.63234E+00
-2.49117E-01	-3.82210E-02	1.80460E+00	-4.61079E+00
-2.52038E-01	1.05446E-01	1.80406E+00	-4.58942E+00
-1.71220E-01	2.36789E-01	1.80351E+00	-4.56821E+00
-2.39530E-02	3.08163E-01	1.80296E+00	-4.54716E+00
1.46969E-01	2.88669E-01	1.80243E+00	-4.52626E+00
2.86869E-01	1.76431E-01	1.80193E+00	-4.50552E+00
3.47721E-01	1.00701E-03	1.80145E+00	-4.48495E+00
3.05020E-01	-1.85167E-01	1.80098E+00	-4.46458E+00
1.67106E-01	-3.23559E-01	1.80051E+00	-4.44438E+00
-2.65168E-02	-3.68861E-01	1.80001E+00	-4.42435E+00
-2.17302E-01	-3.04216E-01	1.79950E+00	-4.40445E+00
-3.46358E-01	-1.47272E-01	1.79899E+00	-4.38469E+00
-3.73394E-01	5.50683E-02	1.79851E+00	-4.36505E+00
-2.89678E-01	2.41487E-01	1.79806E+00	-4.34556E+00
-1.20764E-01	3.55602E-01	1.79764E+00	-4.32624E+00
8.17425E-02	3.63691E-01	1.79723E+00	-4.30710E+00
2.56666E-01	2.64918E-01	1.79680E+00	-4.28813E+00
3.52363E-01	9.09960E-02	1.79635E+00	-4.26931E+00
3.42484E-01	-1.04358E-01	1.79587E+00	-4.25060E+00
2.33347E-01	-2.62559E-01	1.79540E+00	-4.23201E+00
6.08796E-02	-3.38275E-01	1.79495E+00	-4.21352E+00
-1.21435E-01	-3.12687E-01	1.79454E+00	-4.19517E+00
-2.59578E-01	-1.98100E-01	1.79417E+00	-4.17696E+00
-3.15375E-01	-3.27283E-02	1.79381E+00	-4.15893E+00
-2.77197E-01	1.32226E-01	1.79344E+00	-4.14106E+00
-1.61936E-01	2.48676E-01	1.79305E+00	-4.12333E+00
-8.22165E-03	2.85928E-01	1.79262E+00	-4.10573E+00
1.36612E-01	2.38738E-01	1.79218E+00	-4.08821E+00
2.31239E-01	1.27094E-01	1.79176E+00	-4.07079E+00
2.52252E-01	-1.15968E-02	1.79138E+00	-4.05348E+00
1.99731E-01	-1.35010E-01	1.79104E+00	-4.03630E+00
9.52774E-02	-2.08908E-01	1.79072E+00	-4.01929E+00
-2.62460E-02	-2.16571E-01	1.79037E+00	-4.00243E+00
-1.28254E-01	-1.62187E-01	1.78998E+00	-3.98568E+00
-1.83429E-01	-6.76295E-02	1.78960E+00	-3.96901E+00
-1.80882E-01	3.57752E-02	1.78925E+00	-3.95245E+00
-1.27662E-01	1.17450E-01	1.78892E+00	-3.93601E+00
-4.47641E-02	1.56514E-01	1.78859E+00	-3.91971E+00
4.06321E-02	1.46858E-01	1.78824E+00	-3.90353E+00
1.03858E-01	9.72153E-02	1.78788E+00	-3.88744E+00
1.29719E-01	2.68198E-02	1.78754E+00	-3.87145E+00
1.15783E-01	-4.15555E-02	1.78722E+00	-3.85557E+00
7.14359E-02	-8.87534E-02	1.78690E+00	-3.83981E+00
1.35591E-02	-1.04352E-01	1.78658E+00	-3.82417E+00
-3.94581E-02	-8.85274E-02	1.78625E+00	-3.80863E+00
-7.33197E-02	-5.04886E-02	1.78592E+00	-3.79318E+00
-8.14120E-02	-4.44467E-03	1.78561E+00	-3.77783E+00
-6.55607E-02	3.53034E-02	1.78531E+00	-3.76258E+00
-3.41839E-02	5.85621E-02	1.78502E+00	-3.74745E+00
1.23993E-03	6.15620E-02	1.78472E+00	-3.73244E+00
3.00234E-02	4.69809E-02	1.78440E+00	-3.71750E+00
4.52527E-02	2.20636E-02	1.78409E+00	-3.70265E+00
4.51335E-02	-4.29285E-03	1.78381E+00	-3.68789E+00
3.25817E-02	-2.44279E-02	1.78354E+00	-3.67325E+00
1.34987E-02	-3.39000E-02	1.78326E+00	-3.65873E+00
-5.50546E-03	-3.21563E-02	1.78295E+00	-3.64429E+00
-1.91550E-02	-2.19257E-02	1.78263E+00	-3.62992E+00
-2.47527E-02	-7.77159E-03	1.78234E+00	-3.61561E+00
-2.24108E-02	5.58657E-03	1.78208E+00	-3.60139E+00
-1.44264E-02	1.46416E-02	1.78184E+00	-3.58729E+00
-4.16251E-03	1.78206E-02	1.78161E+00	-3.57331E+00
5.11763E-03	1.54911E-02	1.78136E+00	-3.55944E+00
1.11201E-02	9.42698E-03	1.78108E+00	-3.54565E+00
1.29158E-02	2.01372E-03	1.78078E+00	-3.53193E+00
1.08742E-02	-4.51931E-03	1.78048E+00	-3.51826E+00
6.27237E-03	-8.63238E-03	1.78020E+00	-3.50465E+00
7.76222E-04	-9.70526E-03	1.77996E+00	-3.49113E+00
-4.04471E-03	-7.98796E-03	1.77974E+00	-3.47772E+00
-7.06361E-03	-4.36511E-03	1.77952E+00	-3.46441E+00
-7.76727E-03	-3.86932E-05	1.77929E+00	-3.45119E+00
-6.27091E-03	3.78940E-03	1.77904E+00	-3.43806E+00
-3.20807E-03	6.18180E-03	1.77878E+00	-3.42500E+00
4.64635E-04	6.64741E-03	1.77852E+00	-3.41200E+00
3.71427E-03	5.22133E-03	1.77827E+00	-3.39907E+00
5.68383E-03	2.42964E-03	1.77803E+00	-3.38622E+00
5.90785E-03	-8.60084E-04	1.77780E+00	-3.37344E+00
4.43127E-03	-3.68038E-03	1.77757E+00	-3.36075E+00
1.79061E-03	-5.24176E-03	1.77735E+00	-3.34813E+00
-1.15217E-03	-5.16795E-03	1.77713E+00	-3.33559E+00
-3.48457E-03	-3.60869E-03	1.77691E+00	-3.32314E+00
-4.54312E-03	-1.18132E-03	1.77668E+00	-3.31076E+00
-4.13359E-03	1.25241E-03	1.77645E+00	-3.29844E+00
-2.58393E-03	2.89908E-03	1.77621E+00	-3.28619E+00
-6.02850E-04	3.32611E-03	1.77599E+00	-3.27399E+00
1.01256E-03	2.61454E-03	1.77578E+00	-3.26186E+00
1.70783E-03	1.30443E-03	1.77559E+00	-3.24981E+00
1.40473E-03	1.44579E-04	1.77540E+00	-3.23786E+00
5.31330E-04	-2.57195E-04	1.77519E+00	-3.22597E+00
-1.78756E-04	2.63709E-04	1.77497E+00	-3.21415E+00
-4.64211E-05	1.31455E-03	1.77475E+00	-3.20238E+00
1.18203E-03	2.08903E-03	1.77454E+00	-3.19066E+00
3.12357E-03	1.73372E-03	1.77434E+00	-3.17901E+00
4.82603E-03	-2.03534E-04	1.77416E+00	-3.16744E+00
5.12507E-03	-3.43795E-03	1.77397E+00	-3.15593E+00
3.17428E-03	-6.89691E-03	1.77378E+00	-3.14449E+00
-1.06334E-03	-9.02675E-03	1.77360E+00	-3.13312E+00
-6.58303E-03	-8.38079E-03	1.77341E+00	-3.12181E+00
-1.15183E-02	-4.28838E-03	1.77322E+00	-3.11057E+00
-1.37265E-02	2.67020E-03	1.77303E+00	-3.09939E+00
-1.16088E-02	1.06140E-02	1.77283E+00	-3.08825E+00
-4.86909E-03	1.68307E-02	1.77264E+00	-3.07716E+00
5.10353E-03	1.86646E-02	1.77248E+00	-3.06614E+00
1.54388E-02	1.45401E-02	1.77233E+00	-3.05519E+00
2.25939E-02	4.74289E-03	1.77217E+00	-3.04433E+00
2.35331E-02	-8.36677E-03	1.77199E+00	-3.03352E+00
1.69087E-02	-2.08799E-02	1.77179E+00	-3.02277E+00
3.78955E-03	-2.85004E-02	1.77160E+00	-3.01205E+00
-1.23811E-02	-2.80014E-02	1.77142E+00	-3.00137E+00
-2.66749E-02	-1.84844E-02	1.77126E+00	-2.99076E+00
-3.41949E-02	-1.96952E-03	1.77110E+00	-2.98021E+00
-3.17479E-02	1.69734E-02	1.77095E+00	-2.96973E+00
-1.90964E-02	3.24933E-02	1.77079E+00	-2.95931E+00
6.74874E-04	3.93023E-02	1.77062E+00	-2.94895E+00
2.18927E-02	3.44835E-02	1.77044E+00	-2.93863E+00
3.79599E-02	1.86481E-02	1.77026E+00	-2.92835E+00
4.34551E-02	-4.00338E-03	1.77009E+00	-2.91812E+00
3.59851E-02	-2.68098E-02	1.76993E+00	-2.90794E+00
1.71431E-02	-4.26741E-02	1.76978E+00	-2.89782E+00
-7.78534E-03	-4.63240E-02	1.76964E+00	-2.88776E+00
-3.13518E-02	-3.61085E-02	1.76949E+00	-2.87775E+00
-4.62467E-02	-1.46764E-02	1.76933E+00	-2.86780E+00
-4.76440E-02	1.17199E-02	1.76917E+00	-2.85789E+00
-3.48137E-02	3.51142E-02	1.76901E+00	-2.84802E+00
-1.14475E-02	4.83233E-02	1.76886E+00	-2.83820E+00
1.54371E-02	4.72410E-02	1.76872E+00	-2.82843E+00
3.76961E-02	3.21700E-02	1.76859E+00	-2.81872E+00
4.86165E-02	7.74455E-03	1.76845E+00	-2.80907E+00
4.50445E-02	-1.85433E-02	1.76831E+00	-2.79947E+00
2.83486E-02	-3.87360E-02	1.76816E+00	-2.78991E+00
3.91764E-03	-4.69313E-02	1.76800E+00	-2.78039E+00
-2.06316E-02	-4.11023E-02	1.76786E+00	-2.77090E+00
-3.79278E-02	-2.36282E-02	1.76772E+00	-2.76147E+00
-4.31802E-02	-3.73526E-04	1.76759E+00	-2.75209E+00
-3.55798E-02	2.13200E-02	1.76746E+00	-2.74276E+00
