jMRUI Data Textfile
 
Filename: 2HG.txt
 
PointsInDataset: 2048
DatasetsInFile: 1
SamplingInterval: 5.00000E-01
ZeroOrderPhase: 0E0
BeginTime: 0E0
TransmitterFrequency: 1.27740E+08
MagneticField: 0E0
TypeOfNucleus: 0E0
NameOfPatient: 
DateOfExperiment: 
Spectrometer: Vespa-Simulation
AdditionalInfo: see 'readme' file for Vespa-Simulation output synopsis
 
  
Signal and FFT 
sig(real)	sig(imag)	fft(real)	fft(imag)
Signal 1 out of 1 in file
4.58399E+00	-2.72237E-02	2.46913E+00	-6.45010E+00
2.63874E+00	-3.43131E+00	2.46493E+00	-6.40233E+00
-1.11510E+00	-3.55039E+00	2.46086E+00	-6.35541E+00
-2.95858E+00	-5.62338E-01	2.45694E+00	-6.30930E+00
-1.28362E+00	2.26850E+00	2.45317E+00	-6.26399E+00
1.88316E+00	2.04187E+00	2.44952E+00	-6.21948E+00
3.13338E+00	-8.73063E-01	2.44599E+00	-6.17574E+00
1.19235E+00	-3.42000E+00	2.44256E+00	-6.13273E+00
-1.96318E+00	-3.10246E+00	2.43922E+00	-6.09042E+00
-3.33099E+00	-4.06125E-01	2.43599E+00	-6.04880E+00
-1.92057E+00	1.96635E+00	2.43287E+00	-6.00784E+00
5.14675E-01	1.96517E+00	2.42985E+00	-5.96752E+00
1.51909E+00	8.19446E-02	2.42694E+00	-5.92785E+00
3.88755E-01	-1.48537E+00	2.42411E+00	-5.88880E+00
-1.42778E+00	-1.19601E+00	2.42137E+00	-5.85037E+00
-2.06171E+00	4.79697E-01	2.41870E+00	-5.81252E+00
-1.05453E+00	1.86096E+00	2.41610E+00	-5.77524E+00
4.94142E-01	1.84727E+00	2.41358E+00	-5.73850E+00
1.26527E+00	7.88606E-01	2.41113E+00	-5.70229E+00
9.46405E-01	-1.87242E-01	2.40876E+00	-5.66661E+00
2.17801E-01	-3.78047E-01	2.40646E+00	-5.63144E+00
-1.49310E-01	2.92206E-02	2.40423E+00	-5.59678E+00
2.86148E-02	4.38924E-01	2.40206E+00	-5.56261E+00
4.43827E-01	4.97509E-01	2.39994E+00	-5.52892E+00
7.69179E-01	2.40725E-01	2.39788E+00	-5.49569E+00
8.81399E-01	-1.66325E-01	2.39587E+00	-5.46290E+00
7.48790E-01	-6.03568E-01	2.39392E+00	-5.43055E+00
3.47183E-01	-9.22069E-01	2.39202E+00	-5.39863E+00
-2.12592E-01	-9.06938E-01	2.39018E+00	-5.36713E+00
-6.01760E-01	-4.85453E-01	2.38840E+00	-5.33605E+00
-5.10168E-01	5.77066E-02	2.38665E+00	-5.30537E+00
-2.27177E-02	2.37751E-01	2.38494E+00	-5.27509E+00
3.45683E-01	-1.45385E-01	2.38327E+00	-5.24519E+00
1.20709E-01	-7.15325E-01	2.38164E+00	-5.21566E+00
-6.02321E-01	-8.25012E-01	2.38005E+00	-5.18649E+00
-1.17548E+00	-2.15251E-01	2.37851E+00	-5.15767E+00
-1.01771E+00	6.65124E-01	2.37701E+00	-5.12920E+00
-2.20083E-01	1.06150E+00	2.37555E+00	-5.10108E+00
5.10660E-01	6.58959E-01	2.37412E+00	-5.07329E+00
5.40567E-01	-9.51684E-02	2.37273E+00	-5.04584E+00
-6.73583E-02	-4.33635E-01	2.37136E+00	-5.01871E+00
-6.28005E-01	-2.86804E-02	2.37002E+00	-4.99189E+00
-5.23123E-01	6.98806E-01	2.36872E+00	-4.96537E+00
1.97470E-01	1.01470E+00	2.36744E+00	-4.93915E+00
8.89814E-01	5.93057E-01	2.36620E+00	-4.91322E+00
9.57576E-01	-1.93320E-01	2.36499E+00	-4.88758E+00
4.07632E-01	-6.65474E-01	2.36381E+00	-4.86223E+00
-2.03394E-01	-4.89737E-01	2.36265E+00	-4.83716E+00
-3.30278E-01	4.84552E-02	2.36151E+00	-4.81235E+00
6.36409E-02	3.68926E-01	2.36041E+00	-4.78780E+00
5.27220E-01	1.58424E-01	2.35934E+00	-4.76351E+00
5.84969E-01	-3.72029E-01	2.35830E+00	-4.73949E+00
1.70394E-01	-7.33461E-01	2.35728E+00	-4.71574E+00
-3.58190E-01	-6.25907E-01	2.35627E+00	-4.69222E+00
-5.81000E-01	-1.80910E-01	2.35527E+00	-4.66895E+00
-3.87833E-01	2.05773E-01	2.35430E+00	-4.64591E+00
-3.05969E-02	2.48813E-01	2.35334E+00	-4.62309E+00
1.43578E-01	6.29276E-04	2.35242E+00	-4.60050E+00
2.55358E-03	-2.42997E-01	2.35152E+00	-4.57814E+00
-2.88718E-01	-2.30914E-01	2.35064E+00	-4.55600E+00
-4.49634E-01	3.49046E-02	2.34978E+00	-4.53408E+00
-3.36681E-01	3.33773E-01	2.34894E+00	-4.51238E+00
-4.58562E-02	4.38169E-01	2.34811E+00	-4.49089E+00
1.97198E-01	3.01118E-01	2.34728E+00	-4.46960E+00
2.37103E-01	6.91445E-02	2.34648E+00	-4.44851E+00
1.02729E-01	-6.32584E-02	2.34569E+00	-4.42761E+00
-4.37704E-02	-1.64740E-02	2.34493E+00	-4.40690E+00
-5.74003E-02	1.27172E-01	2.34418E+00	-4.38639E+00
7.40945E-02	2.12653E-01	2.34345E+00	-4.36606E+00
2.36320E-01	1.47871E-01	2.34273E+00	-4.34593E+00
2.94884E-01	-2.78756E-02	2.34202E+00	-4.32598E+00
2.05717E-01	-1.88041E-01	2.34133E+00	-4.30620E+00
4.18436E-02	-2.27629E-01	2.34065E+00	-4.28660E+00
-7.54699E-02	-1.43864E-01	2.33998E+00	-4.26717E+00
-7.70849E-02	-2.78846E-02	2.33934E+00	-4.24791E+00
4.55426E-03	1.76655E-02	2.33870E+00	-4.22882E+00
7.21612E-02	-3.70111E-02	2.33808E+00	-4.20990E+00
5.01454E-02	-1.30845E-01	2.33746E+00	-4.19113E+00
-5.32243E-02	-1.70191E-01	2.33687E+00	-4.17253E+00
-1.57732E-01	-1.10413E-01	2.33628E+00	-4.15409E+00
-1.82840E-01	8.64448E-03	2.33569E+00	-4.13580E+00
-1.15439E-01	1.00466E-01	2.33513E+00	-4.11766E+00
-1.66558E-02	1.06805E-01	2.33457E+00	-4.09967E+00
3.45407E-02	4.40142E-02	2.33403E+00	-4.08183E+00
9.02049E-03	-1.71427E-02	2.33349E+00	-4.06414E+00
-5.23225E-02	-1.66575E-02	2.33297E+00	-4.04659E+00
-8.01551E-02	4.36603E-02	2.33245E+00	-4.02919E+00
-3.99330E-02	1.06538E-01	2.33194E+00	-4.01192E+00
3.97685E-02	1.13613E-01	2.33143E+00	-3.99479E+00
9.62007E-02	5.70193E-02	2.33094E+00	-3.97779E+00
8.94223E-02	-1.68567E-02	2.33045E+00	-3.96092E+00
3.52361E-02	-5.14908E-02	2.32998E+00	-3.94419E+00
-1.33073E-02	-2.99225E-02	2.32951E+00	-3.92758E+00
-1.57174E-02	1.44323E-02	2.32905E+00	-3.91110E+00
2.15039E-02	3.25673E-02	2.32860E+00	-3.89475E+00
5.55445E-02	5.60349E-03	2.32815E+00	-3.87852E+00
4.98869E-02	-4.07591E-02	2.32772E+00	-3.86240E+00
7.50840E-03	-6.37482E-02	2.32729E+00	-3.84642E+00
-3.50540E-02	-4.43702E-02	2.32687E+00	-3.83055E+00
-4.40627E-02	-2.76901E-03	2.32646E+00	-3.81480E+00
-1.89776E-02	2.39569E-02	2.32604E+00	-3.79917E+00
1.08738E-02	1.73890E-02	2.32563E+00	-3.78364E+00
1.69860E-02	-7.79329E-03	2.32524E+00	-3.76821E+00
-1.97326E-03	-2.19892E-02	2.32486E+00	-3.75291E+00
-2.25950E-02	-1.07129E-02	2.32448E+00	-3.73771E+00
-2.23776E-02	1.33889E-02	2.32411E+00	-3.72262E+00
-1.41150E-03	2.59235E-02	2.32375E+00	-3.70764E+00
2.01792E-02	1.55468E-02	2.32339E+00	-3.69277E+00
2.36371E-02	-6.70344E-03	2.32303E+00	-3.67800E+00
9.00450E-03	-2.05284E-02	2.32268E+00	-3.66333E+00
-7.51204E-03	-1.65416E-02	2.32234E+00	-3.64876E+00
-1.10742E-02	-3.40004E-03	2.32200E+00	-3.63430E+00
-2.04393E-03	3.08757E-03	2.32167E+00	-3.61993E+00
6.43968E-03	-3.82787E-03	2.32134E+00	-3.60565E+00
2.70639E-03	-1.62475E-02	2.32103E+00	-3.59148E+00
-1.21917E-02	-2.05256E-02	2.32070E+00	-3.57740E+00
-2.62874E-02	-1.06684E-02	2.32038E+00	-3.56340E+00
-2.84390E-02	6.57715E-03	2.32008E+00	-3.54950E+00
-1.82943E-02	1.86883E-02	2.31979E+00	-3.53570E+00
-5.68310E-03	1.89642E-02	2.31949E+00	-3.52198E+00
-8.81168E-04	1.19526E-02	2.31920E+00	-3.50835E+00
-5.15659E-03	8.28550E-03	2.31892E+00	-3.49481E+00
-1.01286E-02	1.42039E-02	2.31863E+00	-3.48137E+00
-6.15549E-03	2.55550E-02	2.31834E+00	-3.46800E+00
8.21877E-03	3.16949E-02	2.31807E+00	-3.45471E+00
2.46039E-02	2.55320E-02	2.31780E+00	-3.44152E+00
3.24120E-02	1.02099E-02	2.31753E+00	-3.42841E+00
2.85310E-02	-3.91683E-03	2.31726E+00	-3.41537E+00
1.97245E-02	-9.06339E-03	2.31701E+00	-3.40241E+00
1.55198E-02	-7.00086E-03	2.31676E+00	-3.38954E+00
1.87212E-02	-6.45682E-03	2.31650E+00	-3.37675E+00
2.30192E-02	-1.37319E-02	2.31625E+00	-3.36402E+00
1.98848E-02	-2.61464E-02	2.31601E+00	-3.35138E+00
7.47720E-03	-3.48539E-02	2.31577E+00	-3.33882E+00
-7.59232E-03	-3.38116E-02	2.31553E+00	-3.32632E+00
-1.71268E-02	-2.54496E-02	2.31530E+00	-3.31391E+00
-1.93230E-02	-1.73837E-02	2.31508E+00	-3.30158E+00
-1.95217E-02	-1.41159E-02	2.31484E+00	-3.28932E+00
-2.33929E-02	-1.27457E-02	2.31461E+00	-3.27712E+00
-3.02454E-02	-7.04983E-03	2.31438E+00	-3.26499E+00
-3.37136E-02	4.85330E-03	2.31416E+00	-3.25292E+00
-2.89037E-02	1.77136E-02	2.31394E+00	-3.24092E+00
-1.81638E-02	2.43123E-02	2.31374E+00	-3.22900E+00
-9.12721E-03	2.31123E-02	2.31355E+00	-3.21715E+00
-6.81211E-03	2.01966E-02	2.31335E+00	-3.20537E+00
-7.88242E-03	2.30213E-02	2.31315E+00	-3.19367E+00
-3.43106E-03	3.18872E-02	2.31293E+00	-3.18203E+00
1.16009E-02	3.79271E-02	2.31272E+00	-3.17044E+00
3.12661E-02	3.08161E-02	2.31252E+00	-3.15891E+00
4.17642E-02	9.98246E-03	2.31233E+00	-3.14744E+00
3.39548E-02	-1.17700E-02	2.31215E+00	-3.13604E+00
1.43014E-02	-1.80477E-02	2.31197E+00	-3.12470E+00
2.03154E-03	-5.24944E-03	2.31179E+00	-3.11344E+00
1.16404E-02	1.03907E-02	2.31161E+00	-3.10223E+00
3.56694E-02	5.59280E-03	2.31142E+00	-3.09108E+00
4.70504E-02	-2.56941E-02	2.31124E+00	-3.07999E+00
2.41337E-02	-6.04671E-02	2.31107E+00	-3.06896E+00
-2.33886E-02	-6.42553E-02	2.31090E+00	-3.05798E+00
-5.68234E-02	-2.63352E-02	2.31073E+00	-3.04706E+00
-4.39074E-02	2.27160E-02	2.31057E+00	-3.03621E+00
4.57385E-03	3.54417E-02	2.31040E+00	-3.02541E+00
3.80951E-02	-3.95988E-03	2.31024E+00	-3.01467E+00
1.45785E-02	-5.64275E-02	2.31007E+00	-3.00398E+00
-5.16777E-02	-6.14176E-02	2.30991E+00	-2.99334E+00
-9.61090E-02	-1.50473E-05	2.30976E+00	-2.98275E+00
-6.65413E-02	7.75565E-02	2.30961E+00	-2.97222E+00
1.82710E-02	9.62392E-02	2.30946E+00	-2.96175E+00
7.95609E-02	3.36431E-02	2.30931E+00	-2.95134E+00
5.58702E-02	-5.01362E-02	2.30916E+00	-2.94098E+00
-2.99317E-02	-6.84728E-02	2.30901E+00	-2.93066E+00
-8.78983E-02	2.07446E-03	2.30885E+00	-2.92039E+00
-5.13510E-02	9.22702E-02	2.30871E+00	-2.91017E+00
5.12037E-02	1.07224E-01	2.30857E+00	-2.90000E+00
1.20610E-01	2.44848E-02	2.30844E+00	-2.88988E+00
8.69968E-02	-7.93910E-02	2.30831E+00	-2.87981E+00
-1.73940E-02	-1.04566E-01	2.30818E+00	-2.86980E+00
-8.94384E-02	-2.94523E-02	2.30805E+00	-2.85984E+00
-5.94933E-02	6.72657E-02	2.30792E+00	-2.84993E+00
3.87921E-02	8.69599E-02	2.30779E+00	-2.84006E+00
1.04383E-01	1.02913E-02	2.30766E+00	-2.83024E+00
7.14579E-02	-8.60201E-02	2.30752E+00	-2.82045E+00
-2.71990E-02	-1.08770E-01	2.30740E+00	-2.81072E+00
-9.74163E-02	-3.98652E-02	2.30728E+00	-2.80103E+00
-7.81350E-02	5.14156E-02	2.30717E+00	-2.79139E+00
3.61355E-03	8.11987E-02	2.30704E+00	-2.78180E+00
6.66610E-02	3.05639E-02	2.30691E+00	-2.77225E+00
5.63291E-02	-4.46174E-02	2.30678E+00	-2.76272E+00
-9.80389E-03	-7.37217E-02	2.30668E+00	-2.75324E+00
-6.78241E-02	-3.57200E-02	2.30659E+00	-2.74381E+00
-6.96018E-02	3.06632E-02	2.30650E+00	-2.73445E+00
-1.98882E-02	6.92531E-02	2.30640E+00	-2.72513E+00
