jMRUI Data Textfile
 
Filename: ETA.txt
 
PointsInDataset: 2048
DatasetsInFile: 1
SamplingInterval: 5.00000E-01
ZeroOrderPhase: 0E0
BeginTime: 0E0
TransmitterFrequency: 1.27740E+08
MagneticField: 0E0
TypeOfNucleus: 0E0
NameOfPatient: 
DateOfExperiment: 
Spectrometer: Vespa-Simulation
AdditionalInfo: see 'readme' file for Vespa-Simulation output synopsis
 
  
Signal and FFT 
sig(real)	sig(imag)	fft(real)	fft(imag)
Signal 1 out of 1 in file
3.66798E+00	8.12502E-05	2.03784E+00	-7.97400E+00
3.17934E+00	-1.68996E+00	2.03456E+00	-7.91412E+00
1.94107E+00	-2.87630E+00	2.03137E+00	-7.85515E+00
3.44034E-01	-3.26255E+00	2.02825E+00	-7.79706E+00
-1.13675E+00	-2.81717E+00	2.02521E+00	-7.73982E+00
-2.10404E+00	-1.76745E+00	2.02224E+00	-7.68341E+00
-2.36441E+00	-5.04150E-01	2.01934E+00	-7.62782E+00
-1.97516E+00	5.64823E-01	2.01651E+00	-7.57303E+00
-1.19931E+00	1.15633E+00	2.01376E+00	-7.51902E+00
-3.90504E-01	1.19847E+00	2.01107E+00	-7.46577E+00
1.46246E-01	8.33212E-01	2.00844E+00	-7.41327E+00
2.64788E-01	3.39211E-01	2.00588E+00	-7.36150E+00
1.96302E-02	8.32556E-03	2.00338E+00	-7.31045E+00
-3.72890E-01	2.50620E-02	2.00093E+00	-7.26010E+00
-6.35247E-01	3.94948E-01	1.99852E+00	-7.21042E+00
-5.49760E-01	9.47381E-01	1.99618E+00	-7.16141E+00
-5.23564E-02	1.40927E+00	1.99389E+00	-7.11305E+00
7.36528E-01	1.51891E+00	1.99166E+00	-7.06534E+00
1.55468E+00	1.13518E+00	1.98948E+00	-7.01826E+00
2.09684E+00	2.99944E-01	1.98735E+00	-6.97180E+00
2.13096E+00	-7.69470E-01	1.98525E+00	-6.92593E+00
1.58800E+00	-1.75433E+00	1.98320E+00	-6.88065E+00
5.91880E-01	-2.34662E+00	1.98119E+00	-6.83595E+00
-5.80704E-01	-2.35736E+00	1.97923E+00	-6.79182E+00
-1.59477E+00	-1.78156E+00	1.97730E+00	-6.74824E+00
-2.17043E+00	-7.97332E-01	1.97541E+00	-6.70519E+00
-2.17402E+00	2.98732E-01	1.97357E+00	-6.66268E+00
-1.65529E+00	1.19470E+00	1.97177E+00	-6.62070E+00
-8.19549E-01	1.66674E+00	1.97001E+00	-6.57923E+00
5.21087E-02	1.64608E+00	1.96827E+00	-6.53827E+00
7.03526E-01	1.22784E+00	1.96656E+00	-6.49780E+00
9.87741E-01	6.21710E-01	1.96488E+00	-6.45780E+00
9.05779E-01	6.62296E-02	1.96324E+00	-6.41827E+00
5.88752E-01	-2.60061E-01	1.96165E+00	-6.37920E+00
2.33729E-01	-2.97808E-01	1.96008E+00	-6.34060E+00
2.02405E-02	-1.16240E-01	1.95855E+00	-6.30245E+00
3.99605E-02	1.27349E-01	1.95704E+00	-6.26475E+00
2.65544E-01	2.59809E-01	1.95555E+00	-6.22748E+00
5.68344E-01	1.66586E-01	1.95409E+00	-6.19062E+00
7.75968E-01	-1.60381E-01	1.95265E+00	-6.15417E+00
7.45752E-01	-6.18755E-01	1.95125E+00	-6.11812E+00
4.25255E-01	-1.03609E+00	1.94988E+00	-6.08248E+00
-1.23163E-01	-1.23743E+00	1.94854E+00	-6.04724E+00
-7.42434E-01	-1.11395E+00	1.94723E+00	-6.01239E+00
-1.23679E+00	-6.66480E-01	1.94593E+00	-5.97793E+00
-1.44236E+00	-8.08473E-03	1.94465E+00	-5.94384E+00
-1.28559E+00	6.74271E-01	1.94339E+00	-5.91010E+00
-8.08645E-01	1.18426E+00	1.94216E+00	-5.87673E+00
-1.53307E-01	1.38249E+00	1.94095E+00	-5.84371E+00
4.89134E-01	1.23098E+00	1.93977E+00	-5.81104E+00
9.43237E-01	8.00764E-01	1.93861E+00	-5.77872E+00
1.10564E+00	2.41667E-01	1.93748E+00	-5.74674E+00
9.73237E-01	-2.73067E-01	1.93637E+00	-5.71510E+00
6.34710E-01	-6.06054E-01	1.93526E+00	-5.68378E+00
2.31016E-01	-6.97945E-01	1.93417E+00	-5.65279E+00
-9.88703E-02	-5.78381E-01	1.93310E+00	-5.62211E+00
-2.66478E-01	-3.44412E-01	1.93204E+00	-5.59172E+00
-2.59285E-01	-1.16565E-01	1.93102E+00	-5.56165E+00
-1.35747E-01	9.49223E-03	1.93002E+00	-5.53188E+00
6.04165E-03	-2.58944E-03	1.92904E+00	-5.50241E+00
7.22251E-02	-1.21159E-01	1.92807E+00	-5.47325E+00
1.21325E-02	-2.65175E-01	1.92711E+00	-5.44438E+00
-1.62328E-01	-3.41259E-01	1.92615E+00	-5.41579E+00
-3.83217E-01	-2.83900E-01	1.92521E+00	-5.38746E+00
-5.55200E-01	-8.31352E-02	1.92428E+00	-5.35941E+00
-5.94385E-01	2.10393E-01	1.92337E+00	-5.33162E+00
-4.62037E-01	5.04206E-01	1.92247E+00	-5.30409E+00
-1.80575E-01	6.98417E-01	1.92161E+00	-5.27682E+00
1.73596E-01	7.22676E-01	1.92076E+00	-5.24982E+00
4.97022E-01	5.61606E-01	1.91992E+00	-5.22310E+00
6.95380E-01	2.59829E-01	1.91906E+00	-5.19663E+00
7.15213E-01	-9.43498E-02	1.91820E+00	-5.17037E+00
5.60320E-01	-3.99926E-01	1.91737E+00	-5.14432E+00
2.87453E-01	-5.77093E-01	1.91659E+00	-5.11851E+00
-1.57831E-02	-5.91680E-01	1.91585E+00	-5.09297E+00
-2.62033E-01	-4.62457E-01	1.91511E+00	-5.06769E+00
-3.92649E-01	-2.49699E-01	1.91434E+00	-5.04266E+00
-3.93750E-01	-3.05537E-02	1.91356E+00	-5.01782E+00
-2.95129E-01	1.28865E-01	1.91279E+00	-4.99317E+00
-1.54093E-01	1.94618E-01	1.91207E+00	-4.96873E+00
-3.12937E-02	1.72230E-01	1.91139E+00	-4.94452E+00
3.18882E-02	9.88709E-02	1.91070E+00	-4.92056E+00
2.62056E-02	2.47109E-02	1.91000E+00	-4.89682E+00
-2.60936E-02	-8.56365E-03	1.90930E+00	-4.87325E+00
-8.40082E-02	1.62228E-02	1.90861E+00	-4.84988E+00
-1.06691E-01	8.67908E-02	1.90795E+00	-4.82670E+00
-7.08061E-02	1.68520E-01	1.90732E+00	-4.80373E+00
2.02256E-02	2.19997E-01	1.90670E+00	-4.78098E+00
1.38125E-01	2.10428E-01	1.90608E+00	-4.75843E+00
2.41301E-01	1.32106E-01	1.90545E+00	-4.73607E+00
2.91171E-01	3.48085E-03	1.90481E+00	-4.71390E+00
2.66753E-01	-1.37830E-01	1.90418E+00	-4.69189E+00
1.72158E-01	-2.48954E-01	1.90357E+00	-4.67006E+00
3.46534E-02	-2.96959E-01	1.90297E+00	-4.64840E+00
-1.05488E-01	-2.69851E-01	1.90239E+00	-4.62693E+00
-2.09163E-01	-1.79529E-01	1.90182E+00	-4.60564E+00
-2.51199E-01	-5.62912E-02	1.90126E+00	-4.58452E+00
-2.27408E-01	6.25530E-02	1.90070E+00	-4.56358E+00
-1.53839E-01	1.45432E-01	1.90015E+00	-4.54281E+00
-5.92220E-02	1.76041E-01	1.89961E+00	-4.52221E+00
2.59938E-02	1.56567E-01	1.89907E+00	-4.50176E+00
7.98657E-02	1.04258E-01	1.89853E+00	-4.48148E+00
9.48650E-02	4.32505E-02	1.89800E+00	-4.46136E+00
7.79300E-02	-4.83744E-03	1.89749E+00	-4.44140E+00
4.53767E-02	-2.79834E-02	1.89698E+00	-4.42159E+00
1.52334E-02	-2.62952E-02	1.89648E+00	-4.40194E+00
1.40321E-04	-9.66280E-03	1.89598E+00	-4.38245E+00
3.40856E-03	7.91634E-03	1.89548E+00	-4.36310E+00
1.92766E-02	1.47251E-02	1.89499E+00	-4.34389E+00
3.67090E-02	5.89036E-03	1.89451E+00	-4.32484E+00
4.47919E-02	-1.54190E-02	1.89405E+00	-4.30593E+00
3.74023E-02	-4.01890E-02	1.89358E+00	-4.28717E+00
1.54060E-02	-5.78826E-02	1.89311E+00	-4.26856E+00
-1.41993E-02	-6.09185E-02	1.89265E+00	-4.25007E+00
-4.15119E-02	-4.75203E-02	1.89219E+00	-4.23172E+00
-5.77659E-02	-2.19982E-02	1.89175E+00	-4.21349E+00
-5.85351E-02	7.35260E-03	1.89132E+00	-4.19541E+00
-4.49317E-02	3.16535E-02	1.89090E+00	-4.17749E+00
-2.25878E-02	4.46466E-02	1.89047E+00	-4.15970E+00
9.00591E-04	4.45242E-02	1.89002E+00	-4.14203E+00
1.88772E-02	3.38534E-02	1.88958E+00	-4.12447E+00
2.77154E-02	1.79147E-02	1.88915E+00	-4.10702E+00
2.74083E-02	2.35704E-03	1.88875E+00	-4.08970E+00
2.07136E-02	-8.80356E-03	1.88838E+00	-4.07252E+00
1.14544E-02	-1.41127E-02	1.88799E+00	-4.05548E+00
2.84526E-03	-1.43800E-02	1.88759E+00	-4.03857E+00
-3.45168E-03	-1.15487E-02	1.88717E+00	-4.02177E+00
-7.29436E-03	-7.43450E-03	1.88676E+00	-4.00505E+00
-9.29574E-03	-2.96615E-03	1.88637E+00	-3.98845E+00
-9.89300E-03	1.78597E-03	1.88601E+00	-3.97196E+00
-8.82398E-03	6.95902E-03	1.88566E+00	-3.95561E+00
-5.30191E-03	1.21062E-02	1.88530E+00	-3.93938E+00
1.23322E-03	1.58163E-02	1.88493E+00	-3.92327E+00
1.02465E-02	1.60430E-02	1.88456E+00	-3.90726E+00
1.96744E-02	1.10577E-02	1.88420E+00	-3.89134E+00
2.62845E-02	5.75025E-04	1.88385E+00	-3.87554E+00
2.67952E-02	-1.35469E-02	1.88351E+00	-3.85984E+00
1.93272E-02	-2.74809E-02	1.88316E+00	-3.84425E+00
4.52788E-03	-3.65594E-02	1.88283E+00	-3.82876E+00
-1.41864E-02	-3.69680E-02	1.88251E+00	-3.81338E+00
-3.15183E-02	-2.73536E-02	1.88219E+00	-3.79811E+00
-4.20422E-02	-9.63008E-03	1.88187E+00	-3.78294E+00
-4.21802E-02	1.14225E-02	1.88154E+00	-3.76788E+00
-3.16119E-02	2.96961E-02	1.88121E+00	-3.75290E+00
-1.35215E-02	3.98828E-02	1.88089E+00	-3.73802E+00
6.48229E-03	3.93807E-02	1.88057E+00	-3.72322E+00
2.23631E-02	2.92074E-02	1.88028E+00	-3.70853E+00
2.98462E-02	1.35639E-02	1.87999E+00	-3.69393E+00
2.79172E-02	-1.81862E-03	1.87971E+00	-3.67944E+00
1.90484E-02	-1.18952E-02	1.87942E+00	-3.66505E+00
8.06124E-03	-1.42141E-02	1.87913E+00	-3.65076E+00
8.03282E-05	-9.75755E-03	1.87883E+00	-3.63657E+00
-1.60048E-03	-2.37987E-03	1.87853E+00	-3.62245E+00
3.12988E-03	2.92522E-03	1.87822E+00	-3.60841E+00
1.11676E-02	2.22803E-03	1.87792E+00	-3.59444E+00
1.75149E-02	-5.55740E-03	1.87764E+00	-3.58055E+00
1.74266E-02	-1.80503E-02	1.87738E+00	-3.56677E+00
8.52444E-03	-3.02107E-02	1.87713E+00	-3.55309E+00
-7.97782E-03	-3.62822E-02	1.87684E+00	-3.53951E+00
-2.74493E-02	-3.21223E-02	1.87654E+00	-3.52599E+00
-4.33959E-02	-1.70005E-02	1.87625E+00	-3.51252E+00
-4.97949E-02	5.83575E-03	1.87600E+00	-3.49913E+00
-4.33688E-02	3.00883E-02	1.87577E+00	-3.48584E+00
-2.49087E-02	4.84960E-02	1.87554E+00	-3.47266E+00
8.42466E-04	5.53223E-02	1.87528E+00	-3.45958E+00
2.67137E-02	4.83322E-02	1.87498E+00	-3.44656E+00
4.54761E-02	2.95497E-02	1.87469E+00	-3.43357E+00
5.22117E-02	4.52628E-03	1.87443E+00	-3.42063E+00
4.58145E-02	-1.95513E-02	1.87422E+00	-3.40779E+00
2.91649E-02	-3.62510E-02	1.87402E+00	-3.39506E+00
7.94346E-03	-4.18977E-02	1.87380E+00	-3.38243E+00
-1.14186E-02	-3.65218E-02	1.87354E+00	-3.36987E+00
-2.38842E-02	-2.34859E-02	1.87328E+00	-3.35736E+00
-2.72965E-02	-8.01642E-03	1.87304E+00	-3.34490E+00
-2.27369E-02	4.76955E-03	1.87281E+00	-3.33251E+00
-1.37173E-02	1.15793E-02	1.87261E+00	-3.32021E+00
-4.61128E-03	1.18426E-02	1.87240E+00	-3.30799E+00
1.05247E-03	7.52554E-03	1.87219E+00	-3.29586E+00
1.79585E-03	2.03767E-03	1.87195E+00	-3.28380E+00
-1.49779E-03	-1.28092E-03	1.87171E+00	-3.27179E+00
-6.19988E-03	-4.94800E-04	1.87147E+00	-3.25984E+00
-9.16787E-03	4.25096E-03	1.87124E+00	-3.24794E+00
-8.07890E-03	1.09140E-02	1.87103E+00	-3.23611E+00
-2.36040E-03	1.64531E-02	1.87082E+00	-3.22435E+00
6.59681E-03	1.80637E-02	1.87062E+00	-3.21266E+00
1.59708E-02	1.42675E-02	1.87041E+00	-3.20105E+00
2.25421E-02	5.47548E-03	1.87021E+00	-3.18949E+00
2.38290E-02	-6.13820E-03	1.87000E+00	-3.17801E+00
1.89280E-02	-1.73575E-02	1.86979E+00	-3.16658E+00
8.79638E-03	-2.49614E-02	1.86958E+00	-3.15521E+00
-4.05829E-03	-2.67002E-02	1.86938E+00	-3.14389E+00
