jMRUI Data Textfile
 
Filename: GABA.txt
 
PointsInDataset: 2048
DatasetsInFile: 1
SamplingInterval: 5.00000E-01
ZeroOrderPhase: 0E0
BeginTime: 0E0
TransmitterFrequency: 1.27740E+08
MagneticField: 0E0
TypeOfNucleus: 0E0
NameOfPatient: 
DateOfExperiment: 
Spectrometer: Vespa-Simulation
AdditionalInfo: see 'readme' file for Vespa-Simulation output synopsis
 
  
Signal and FFT 
sig(real)	sig(imag)	fft(real)	fft(imag)
Signal 1 out of 1 in file
4.68884E+00	-7.57123E-02	2.34806E+00	-4.91906E+00
2.66468E+00	-3.71122E+00	2.34774E+00	-4.89900E+00
-1.32814E+00	-4.10299E+00	2.34744E+00	-4.87908E+00
-3.74680E+00	-1.22049E+00	2.34714E+00	-4.85933E+00
-2.79059E+00	2.07667E+00	2.34683E+00	-4.83973E+00
1.27670E-01	2.95504E+00	2.34650E+00	-4.82026E+00
2.09616E+00	1.20122E+00	2.34616E+00	-4.80090E+00
1.62530E+00	-9.83032E-01	2.34583E+00	-4.78166E+00
-1.94890E-01	-1.45799E+00	2.34552E+00	-4.76252E+00
-1.19783E+00	-1.89268E-01	2.34525E+00	-4.74351E+00
-4.61418E-01	1.08424E+00	2.34500E+00	-4.72465E+00
9.62013E-01	8.87667E-01	2.34476E+00	-4.70595E+00
1.39843E+00	-5.19371E-01	2.34450E+00	-4.68739E+00
3.35189E-01	-1.61794E+00	2.34421E+00	-4.66895E+00
-1.19593E+00	-1.28801E+00	2.34390E+00	-4.65061E+00
-1.79116E+00	1.59677E-01	2.34361E+00	-4.63235E+00
-1.01006E+00	1.46332E+00	2.34335E+00	-4.61420E+00
4.09938E-01	1.65950E+00	2.34313E+00	-4.59617E+00
1.40209E+00	7.91908E-01	2.34292E+00	-4.57829E+00
1.44851E+00	-3.97715E-01	2.34271E+00	-4.56054E+00
7.35293E-01	-1.19870E+00	2.34248E+00	-4.54292E+00
-2.43419E-01	-1.31653E+00	2.34223E+00	-4.52541E+00
-1.03345E+00	-7.97740E-01	2.34197E+00	-4.50798E+00
-1.29421E+00	1.15725E-01	2.34173E+00	-4.49064E+00
-8.46877E-01	9.92605E-01	2.34152E+00	-4.47340E+00
1.33841E-01	1.29747E+00	2.34134E+00	-4.45628E+00
1.04170E+00	7.50808E-01	2.34117E+00	-4.43930E+00
1.19634E+00	-3.09206E-01	2.34098E+00	-4.42244E+00
4.55929E-01	-1.06348E+00	2.34077E+00	-4.40569E+00
-5.48850E-01	-8.98255E-01	2.34056E+00	-4.38903E+00
-9.33111E-01	-1.63983E-02	2.34034E+00	-4.37245E+00
-4.03789E-01	7.10666E-01	2.34013E+00	-4.35595E+00
4.33003E-01	5.89572E-01	2.33995E+00	-4.33955E+00
6.77723E-01	-1.88927E-01	2.33981E+00	-4.32325E+00
6.95738E-02	-7.41068E-01	2.33966E+00	-4.30709E+00
-7.27406E-01	-4.14455E-01	2.33951E+00	-4.29104E+00
-8.07517E-01	5.07705E-01	2.33934E+00	-4.27509E+00
1.93025E-02	1.07038E+00	2.33915E+00	-4.25923E+00
9.92605E-01	6.22158E-01	2.33896E+00	-4.24345E+00
1.14351E+00	-4.97800E-01	2.33877E+00	-4.22773E+00
2.61980E-01	-1.26585E+00	2.33862E+00	-4.21210E+00
-8.83895E-01	-9.61949E-01	2.33849E+00	-4.19657E+00
-1.28075E+00	1.47159E-01	2.33838E+00	-4.18116E+00
-6.14394E-01	1.08164E+00	2.33824E+00	-4.16587E+00
4.82815E-01	1.07123E+00	2.33808E+00	-4.15068E+00
1.06495E+00	2.21157E-01	2.33788E+00	-4.13556E+00
7.27601E-01	-6.68189E-01	2.33767E+00	-4.12048E+00
-1.12120E-01	-8.74554E-01	2.33748E+00	-4.10544E+00
-6.88765E-01	-3.55791E-01	2.33734E+00	-4.09046E+00
-5.90192E-01	3.25599E-01	2.33726E+00	-4.07559E+00
-3.96662E-02	5.81752E-01	2.33720E+00	-4.06085E+00
4.11718E-01	2.94713E-01	2.33712E+00	-4.04624E+00
4.08671E-01	-1.79060E-01	2.33702E+00	-4.03172E+00
4.63103E-02	-4.00462E-01	2.33691E+00	-4.01729E+00
-2.99521E-01	-2.26410E-01	2.33676E+00	-4.00294E+00
-3.34803E-01	1.31735E-01	2.33659E+00	-3.98865E+00
-6.92035E-02	3.45297E-01	2.33641E+00	-3.97440E+00
2.44346E-01	2.49447E-01	2.33625E+00	-3.96020E+00
3.44234E-01	-5.38631E-02	2.33612E+00	-3.94606E+00
1.61186E-01	-3.08862E-01	2.33601E+00	-3.93200E+00
-1.49378E-01	-3.14590E-01	2.33592E+00	-3.91801E+00
-3.40099E-01	-7.16830E-02	2.33587E+00	-3.90411E+00
-2.61980E-01	2.26227E-01	2.33585E+00	-3.89033E+00
2.25487E-02	3.43172E-01	2.33581E+00	-3.87667E+00
2.86267E-01	1.85259E-01	2.33573E+00	-3.86309E+00
3.15382E-01	-1.20347E-01	2.33562E+00	-3.84959E+00
8.55103E-02	-3.22803E-01	2.33548E+00	-3.83616E+00
-2.11787E-01	-2.53574E-01	2.33531E+00	-3.82275E+00
-3.25882E-01	2.79365E-02	2.33514E+00	-3.80936E+00
-1.61438E-01	2.80908E-01	2.33503E+00	-3.79601E+00
1.37449E-01	2.89930E-01	2.33496E+00	-3.78274E+00
3.12837E-01	5.22805E-02	2.33493E+00	-3.76956E+00
2.19060E-01	-2.22553E-01	2.33489E+00	-3.75649E+00
-5.37249E-02	-3.00691E-01	2.33485E+00	-3.74352E+00
-2.67283E-01	-1.27324E-01	2.33477E+00	-3.73062E+00
-2.48832E-01	1.36104E-01	2.33467E+00	-3.71777E+00
-3.43001E-02	2.65696E-01	2.33456E+00	-3.70496E+00
1.80693E-01	1.71216E-01	2.33447E+00	-3.69220E+00
2.23194E-01	-4.14950E-02	2.33440E+00	-3.67950E+00
8.61918E-02	-1.83539E-01	2.33434E+00	-3.66688E+00
-8.80532E-02	-1.53605E-01	2.33429E+00	-3.65433E+00
-1.50668E-01	-1.05569E-02	2.33423E+00	-3.64185E+00
-7.39779E-02	1.02314E-01	2.33417E+00	-3.62944E+00
4.47466E-02	9.47155E-02	2.33409E+00	-3.61708E+00
8.91155E-02	-4.66488E-04	2.33402E+00	-3.60478E+00
3.02731E-02	-7.59754E-02	2.33395E+00	-3.59252E+00
-5.94852E-02	-5.80311E-02	2.33390E+00	-3.58033E+00
-8.53819E-02	2.99951E-02	2.33385E+00	-3.56821E+00
-1.97550E-02	9.85248E-02	2.33380E+00	-3.55615E+00
7.74853E-02	7.87241E-02	2.33376E+00	-3.54415E+00
1.17714E-01	-1.65893E-02	2.33370E+00	-3.53222E+00
6.28002E-02	-1.07985E-01	2.33364E+00	-3.52034E+00
-4.47230E-02	-1.20155E-01	2.33357E+00	-3.50851E+00
-1.20974E-01	-4.37688E-02	2.33352E+00	-3.49672E+00
-1.10396E-01	6.14136E-02	2.33348E+00	-3.48500E+00
-2.63658E-02	1.18576E-01	2.33344E+00	-3.47334E+00
6.60999E-02	9.33732E-02	2.33340E+00	-3.46173E+00
1.04639E-01	1.36056E-02	2.33336E+00	-3.45019E+00
7.37143E-02	-6.03784E-02	2.33332E+00	-3.43871E+00
6.74345E-03	-8.39231E-02	2.33326E+00	-3.42728E+00
-4.74592E-02	-5.51499E-02	2.33319E+00	-3.41589E+00
-6.12655E-02	-5.31252E-03	2.33314E+00	-3.40453E+00
-4.00367E-02	3.14184E-02	2.33310E+00	-3.39322E+00
-7.45752E-03	4.07133E-02	2.33309E+00	-3.38198E+00
1.62811E-02	2.90990E-02	2.33307E+00	-3.37081E+00
2.47957E-02	1.05840E-02	2.33304E+00	-3.35969E+00
2.16345E-02	-5.04449E-03	2.33300E+00	-3.34862E+00
1.22887E-02	-1.42262E-02	2.33296E+00	-3.33761E+00
9.87978E-04	-1.61658E-02	2.33292E+00	-3.32664E+00
-8.18621E-03	-1.12249E-02	2.33287E+00	-3.31570E+00
-1.13251E-02	-2.31358E-03	2.33284E+00	-3.30480E+00
-7.54444E-03	5.08196E-03	2.33282E+00	-3.29396E+00
-7.15147E-04	6.57013E-03	2.33280E+00	-3.28318E+00
3.41845E-03	2.73216E-03	2.33278E+00	-3.27245E+00
2.41114E-03	-1.61045E-03	2.33276E+00	-3.26177E+00
-1.08167E-03	-2.39411E-03	2.33274E+00	-3.25114E+00
-2.88172E-03	-7.33589E-05	2.33271E+00	-3.24057E+00
-1.97472E-03	1.97719E-03	2.33267E+00	-3.23002E+00
-8.12339E-04	2.15798E-03	2.33264E+00	-3.21950E+00
-1.13055E-03	2.50435E-03	2.33264E+00	-3.20904E+00
-7.45614E-04	5.26679E-03	2.33262E+00	-3.19865E+00
4.15226E-03	8.34994E-03	2.33260E+00	-3.18828E+00
1.31840E-02	5.67911E-03	2.33260E+00	-3.17796E+00
1.91172E-02	-6.56622E-03	2.33259E+00	-3.16771E+00
1.25658E-02	-2.36229E-02	2.33255E+00	-3.15750E+00
-8.95447E-03	-3.26637E-02	2.33252E+00	-3.14731E+00
-3.54532E-02	-2.14774E-02	2.33251E+00	-3.13715E+00
-4.82781E-02	1.05479E-02	2.33251E+00	-3.12707E+00
-3.22998E-02	4.77765E-02	2.33248E+00	-3.11702E+00
1.11074E-02	6.51434E-02	2.33247E+00	-3.10699E+00
5.99362E-02	4.41991E-02	2.33247E+00	-3.09703E+00
8.18187E-02	-1.11040E-02	2.33245E+00	-3.08713E+00
5.52999E-02	-7.10410E-02	2.33242E+00	-3.07724E+00
-1.12608E-02	-9.57552E-02	2.33240E+00	-3.06738E+00
-7.92381E-02	-6.30149E-02	2.33239E+00	-3.05757E+00
-1.03329E-01	1.16343E-02	2.33238E+00	-3.04781E+00
-6.50585E-02	8.13171E-02	2.33237E+00	-3.03807E+00
1.06740E-02	1.00720E-01	2.33237E+00	-3.02838E+00
7.31324E-02	6.08396E-02	2.33238E+00	-3.01874E+00
8.54947E-02	-4.98985E-03	2.33238E+00	-3.00915E+00
5.24651E-02	-5.10510E-02	2.33237E+00	-2.99959E+00
9.78117E-03	-5.82862E-02	2.33236E+00	-2.99007E+00
-1.39598E-02	-4.46701E-02	2.33235E+00	-2.98059E+00
-2.36159E-02	-3.69440E-02	2.33232E+00	-2.97115E+00
-4.32239E-02	-3.50140E-02	2.33230E+00	-2.96173E+00
-7.63797E-02	-1.08720E-02	2.33229E+00	-2.95233E+00
-8.81682E-02	5.22776E-02	2.33229E+00	-2.94297E+00
-3.68458E-02	1.23000E-01	2.33230E+00	-2.93365E+00
7.17115E-02	1.34900E-01	2.33232E+00	-2.92438E+00
1.67106E-01	4.86482E-02	2.33234E+00	-2.91517E+00
1.65070E-01	-9.58909E-02	2.33236E+00	-2.90600E+00
4.60780E-02	-1.96991E-01	2.33235E+00	-2.89688E+00
-1.14804E-01	-1.72859E-01	2.33232E+00	-2.88777E+00
-2.03078E-01	-3.50648E-02	2.33230E+00	-2.87868E+00
-1.59289E-01	1.17590E-01	2.33229E+00	-2.86961E+00
-2.56693E-02	1.81830E-01	2.33229E+00	-2.86059E+00
9.70309E-02	1.32111E-01	2.33229E+00	-2.85159E+00
1.37618E-01	2.77598E-02	2.33230E+00	-2.84263E+00
1.02606E-01	-5.31647E-02	2.33232E+00	-2.83371E+00
4.63269E-02	-8.13026E-02	2.33233E+00	-2.82484E+00
6.01197E-03	-8.05938E-02	2.33234E+00	-2.81600E+00
-2.58752E-02	-7.86253E-02	2.33235E+00	-2.80719E+00
-6.98690E-02	-6.73777E-02	2.33236E+00	-2.79842E+00
-1.14880E-01	-1.90489E-02	2.33237E+00	-2.78969E+00
-1.18113E-01	6.64350E-02	2.33237E+00	-2.78098E+00
-5.12213E-02	1.42479E-01	2.33237E+00	-2.77230E+00
6.06561E-02	1.51196E-01	2.33238E+00	-2.76365E+00
1.51983E-01	7.61185E-02	2.33238E+00	-2.75503E+00
1.68236E-01	-4.26826E-02	2.33239E+00	-2.74645E+00
1.03108E-01	-1.42009E-01	2.33240E+00	-2.73789E+00
-8.48464E-03	-1.77970E-01	2.33242E+00	-2.72937E+00
-1.20267E-01	-1.39190E-01	2.33243E+00	-2.72089E+00
-1.90746E-01	-3.65272E-02	2.33244E+00	-2.71244E+00
-1.83293E-01	9.98386E-02	2.33245E+00	-2.70401E+00
-7.86917E-02	2.11565E-01	2.33245E+00	-2.69561E+00
9.21063E-02	2.24433E-01	2.33246E+00	-2.68724E+00
2.35331E-01	1.02020E-01	2.33247E+00	-2.67890E+00
2.45347E-01	-9.95988E-02	2.33249E+00	-2.67058E+00
9.65322E-02	-2.47145E-01	2.33252E+00	-2.66230E+00
-1.12732E-01	-2.30401E-01	2.33254E+00	-2.65407E+00
-2.28345E-01	-6.47542E-02	2.33256E+00	-2.64587E+00
-1.74354E-01	1.12623E-01	2.33256E+00	-2.63770E+00
-2.28662E-02	1.65948E-01	2.33255E+00	-2.62954E+00
7.95127E-02	8.74785E-02	2.33254E+00	-2.62140E+00
6.11293E-02	-4.98554E-03	2.33255E+00	-2.61327E+00
-6.01122E-03	-3.12023E-03	2.33257E+00	-2.60516E+00
2.87688E-03	6.77389E-02	2.33262E+00	-2.59709E+00
1.09803E-01	7.65066E-02	2.33268E+00	-2.58908E+00
1.89729E-01	-5.47916E-02	2.33272E+00	-2.58112E+00
1.01170E-01	-2.35001E-01	2.33274E+00	-2.57320E+00
