jMRUI Data Textfile
 
Filename: Glc.txt
 
PointsInDataset: 2048
DatasetsInFile: 1
SamplingInterval: 5.00000E-01
ZeroOrderPhase: 0E0
BeginTime: 0E0
TransmitterFrequency: 1.27740E+08
MagneticField: 0E0
TypeOfNucleus: 0E0
NameOfPatient: 
DateOfExperiment: 
Spectrometer: Vespa-Simulation
AdditionalInfo: see 'readme' file for Vespa-Simulation output synopsis
 
  
Signal and FFT 
sig(real)	sig(imag)	fft(real)	fft(imag)
Signal 1 out of 1 in file
6.68735E+00	-7.87732E-03	2.28961E+01	-3.52439E+01
5.97536E+00	-2.64121E+00	1.93984E+01	-3.46069E+01
4.15500E+00	-4.61488E+00	1.66771E+01	-3.36085E+01
1.68881E+00	-5.49979E+00	1.45568E+01	-3.24797E+01
-8.22561E-01	-5.15034E+00	1.28913E+01	-3.13365E+01
-2.79877E+00	-3.72878E+00	1.15676E+01	-3.02359E+01
-3.82580E+00	-1.64786E+00	1.04997E+01	-2.92021E+01
-3.75047E+00	5.49031E-01	9.62462E+00	-2.82397E+01
-2.70115E+00	2.33465E+00	8.89970E+00	-2.73458E+01
-1.03339E+00	3.33050E+00	8.29491E+00	-2.65168E+01
7.80019E-01	3.39072E+00	7.78698E+00	-2.57500E+01
2.28084E+00	2.61805E+00	7.35594E+00	-2.50420E+01
3.14212E+00	1.31302E+00	6.98505E+00	-2.43876E+01
3.23951E+00	-1.24692E-01	6.66213E+00	-2.37800E+01
2.66185E+00	-1.31172E+00	6.37895E+00	-2.32133E+01
1.66377E+00	-1.98066E+00	6.12918E+00	-2.26830E+01
5.78484E-01	-2.03830E+00	5.90744E+00	-2.21855E+01
-2.81353E-01	-1.57056E+00	5.70943E+00	-2.17167E+01
-7.06778E-01	-7.98264E-01	5.53207E+00	-2.12735E+01
-6.38314E-01	-7.83559E-04	5.37317E+00	-2.08529E+01
-1.65878E-01	5.68201E-01	5.23135E+00	-2.04528E+01
5.12293E-01	7.48947E-01	5.10568E+00	-2.00719E+01
1.15621E+00	5.10966E-01	4.99480E+00	-1.97097E+01
1.55532E+00	-5.06842E-02	4.89714E+00	-1.93657E+01
1.58460E+00	-7.52963E-01	4.81129E+00	-1.90397E+01
1.23204E+00	-1.38254E+00	4.73479E+00	-1.87319E+01
5.93290E-01	-1.75611E+00	4.66428E+00	-1.84412E+01
-1.61480E-01	-1.76720E+00	4.59771E+00	-1.81645E+01
-8.37102E-01	-1.40887E+00	4.53467E+00	-1.78993E+01
-1.26477E+00	-7.69040E-01	4.47532E+00	-1.76439E+01
-1.34238E+00	-2.74168E-03	4.42033E+00	-1.73966E+01
-1.05511E+00	7.09409E-01	4.37126E+00	-1.71571E+01
-4.73731E-01	1.20526E+00	4.32850E+00	-1.69272E+01
2.66579E-01	1.37713E+00	4.29024E+00	-1.67078E+01
1.00015E+00	1.19273E+00	4.25448E+00	-1.64982E+01
1.56842E+00	6.98013E-01	4.22033E+00	-1.62970E+01
1.85345E+00	3.25410E-03	4.18760E+00	-1.61030E+01
1.80043E+00	-7.43128E-01	4.15633E+00	-1.59154E+01
1.42625E+00	-1.38673E+00	4.12656E+00	-1.57338E+01
8.13156E-01	-1.79902E+00	4.09829E+00	-1.55577E+01
8.99600E-02	-1.90233E+00	4.07149E+00	-1.53869E+01
-5.95492E-01	-1.68431E+00	4.04609E+00	-1.52211E+01
-1.10668E+00	-1.19895E+00	4.02203E+00	-1.50599E+01
-1.34645E+00	-5.54319E-01	3.99925E+00	-1.49032E+01
-1.27657E+00	1.10509E-01	3.97766E+00	-1.47508E+01
-9.25452E-01	6.55203E-01	3.95719E+00	-1.46025E+01
-3.81576E-01	9.68264E-01	3.93777E+00	-1.44581E+01
2.26111E-01	9.91442E-01	3.91933E+00	-1.43173E+01
7.57117E-01	7.32520E-01	3.90181E+00	-1.41801E+01
1.09137E+00	2.63420E-01	3.88515E+00	-1.40463E+01
1.15708E+00	-2.96723E-01	3.86929E+00	-1.39157E+01
9.47440E-01	-8.09779E-01	3.85419E+00	-1.37882E+01
5.21947E-01	-1.15197E+00	3.83981E+00	-1.36637E+01
-8.45424E-03	-1.24386E+00	3.82608E+00	-1.35421E+01
-5.09295E-01	-1.06975E+00	3.81298E+00	-1.34232E+01
-8.56377E-01	-6.81009E-01	3.80045E+00	-1.33069E+01
-9.67266E-01	-1.82337E-01	3.78848E+00	-1.31931E+01
-8.21853E-01	2.95595E-01	3.77701E+00	-1.30818E+01
-4.66815E-01	6.30350E-01	3.76603E+00	-1.29728E+01
-2.49169E-03	7.39464E-01	3.75550E+00	-1.28660E+01
4.44176E-01	6.01491E-01	3.74541E+00	-1.27614E+01
7.53607E-01	2.60703E-01	3.73573E+00	-1.26588E+01
8.45059E-01	-1.85722E-01	3.72645E+00	-1.25583E+01
6.97426E-01	-6.14503E-01	3.71753E+00	-1.24597E+01
3.53705E-01	-9.09497E-01	3.70896E+00	-1.23630E+01
-9.17036E-02	-9.92540E-01	3.70071E+00	-1.22681E+01
-5.19356E-01	-8.43461E-01	3.69276E+00	-1.21749E+01
-8.16989E-01	-5.04109E-01	3.68511E+00	-1.20834E+01
-9.09306E-01	-6.57522E-02	3.67774E+00	-1.19936E+01
-7.76998E-01	3.56425E-01	3.67064E+00	-1.19053E+01
-4.60288E-01	6.54583E-01	3.66380E+00	-1.18186E+01
-4.65729E-02	7.56383E-01	3.65719E+00	-1.17333E+01
3.54075E-01	6.43041E-01	3.65081E+00	-1.16495E+01
6.38672E-01	3.52443E-01	3.64464E+00	-1.15671E+01
7.37954E-01	-3.27501E-02	3.63866E+00	-1.14860E+01
6.33314E-01	-4.08368E-01	3.63289E+00	-1.14063E+01
3.59686E-01	-6.76699E-01	3.62732E+00	-1.13277E+01
-5.75764E-03	-7.71670E-01	3.62195E+00	-1.12505E+01
-3.65294E-01	-6.74555E-01	3.61676E+00	-1.11744E+01
-6.26842E-01	-4.16814E-01	3.61173E+00	-1.10996E+01
-7.27422E-01	-6.97402E-02	3.60685E+00	-1.10258E+01
-6.48015E-01	2.75779E-01	3.60211E+00	-1.09532E+01
-4.16317E-01	5.33373E-01	3.59748E+00	-1.08817E+01
-9.74594E-02	6.43123E-01	3.59298E+00	-1.08112E+01
2.24533E-01	5.85550E-01	3.58863E+00	-1.07416E+01
4.68982E-01	3.84524E-01	3.58442E+00	-1.06731E+01
5.78958E-01	9.90442E-02	3.58036E+00	-1.06055E+01
5.34526E-01	-1.93512E-01	3.57644E+00	-1.05389E+01
3.55910E-01	-4.18008E-01	3.57264E+00	-1.04732E+01
9.63469E-02	-5.20384E-01	3.56893E+00	-1.04085E+01
-1.73048E-01	-4.80363E-01	3.56532E+00	-1.03446E+01
-3.82175E-01	-3.14911E-01	3.56177E+00	-1.02816E+01
-4.79695E-01	-7.20980E-02	3.55830E+00	-1.02194E+01
-4.45086E-01	1.82500E-01	3.55492E+00	-1.01580E+01
-2.92488E-01	3.83243E-01	3.55163E+00	-1.00974E+01
-6.55427E-02	4.81095E-01	3.54844E+00	-1.00375E+01
1.74882E-01	4.55296E-01	3.54535E+00	-9.97845E+00
3.66843E-01	3.17525E-01	3.54233E+00	-9.92010E+00
4.63055E-01	1.07694E-01	3.53939E+00	-9.86249E+00
4.42360E-01	-1.17237E-01	3.53652E+00	-9.80558E+00
3.14152E-01	-2.98193E-01	3.53372E+00	-9.74935E+00
1.15045E-01	-3.89028E-01	3.53100E+00	-9.69379E+00
-1.01190E-01	-3.67760E-01	3.52838E+00	-9.63889E+00
-2.77688E-01	-2.41404E-01	3.52584E+00	-9.58467E+00
-3.68771E-01	-4.34060E-02	3.52336E+00	-9.53112E+00
-3.51104E-01	1.75395E-01	3.52091E+00	-9.47821E+00
-2.28890E-01	3.59911E-01	3.51850E+00	-9.42593E+00
-3.21097E-02	4.64486E-01	3.51610E+00	-9.37424E+00
1.91550E-01	4.63916E-01	3.51372E+00	-9.32310E+00
3.88861E-01	3.59046E-01	3.51141E+00	-9.27249E+00
5.14211E-01	1.75746E-01	3.50917E+00	-9.22241E+00
5.40341E-01	-4.21095E-02	3.50700E+00	-9.17289E+00
4.64315E-01	-2.43862E-01	3.50489E+00	-9.12390E+00
3.07294E-01	-3.84460E-01	3.50285E+00	-9.07543E+00
1.08447E-01	-4.35029E-01	3.50089E+00	-9.02749E+00
-8.51558E-02	-3.88951E-01	3.49900E+00	-8.98010E+00
-2.30148E-01	-2.62387E-01	3.49714E+00	-8.93326E+00
-2.97003E-01	-8.91785E-02	3.49530E+00	-8.88694E+00
-2.76217E-01	8.82148E-02	3.49345E+00	-8.84111E+00
-1.79361E-01	2.29402E-01	3.49160E+00	-8.79575E+00
-3.49114E-02	3.05621E-01	3.48976E+00	-8.75082E+00
1.19852E-01	3.05893E-01	3.48796E+00	-8.70630E+00
2.48556E-01	2.38395E-01	3.48620E+00	-8.66220E+00
3.24699E-01	1.27014E-01	3.48451E+00	-8.61852E+00
3.37560E-01	4.15168E-03	3.48289E+00	-8.57528E+00
2.93764E-01	-9.82509E-02	3.48131E+00	-8.53249E+00
2.14282E-01	-1.56993E-01	3.47977E+00	-8.49014E+00
1.27856E-01	-1.63271E-01	3.47826E+00	-8.44821E+00
6.26529E-02	-1.24229E-01	3.47675E+00	-8.40669E+00
3.83785E-02	-6.01897E-02	3.47527E+00	-8.36557E+00
6.08971E-02	1.63361E-03	3.47381E+00	-8.32482E+00
1.20781E-01	3.52049E-02	3.47238E+00	-8.28446E+00
1.96060E-01	2.33698E-02	3.47099E+00	-8.24447E+00
2.58514E-01	-3.68582E-02	3.46963E+00	-8.20487E+00
2.81833E-01	-1.32871E-01	3.46828E+00	-8.16565E+00
2.49480E-01	-2.39354E-01	3.46693E+00	-8.12679E+00
1.60161E-01	-3.24818E-01	3.46559E+00	-8.08827E+00
2.93577E-02	-3.60156E-01	3.46426E+00	-8.05007E+00
-1.13735E-01	-3.27021E-01	3.46297E+00	-8.01219E+00
-2.32991E-01	-2.23741E-01	3.46171E+00	-7.97464E+00
-2.94581E-01	-6.71758E-02	3.46049E+00	-7.93741E+00
-2.76068E-01	1.10252E-01	3.45932E+00	-7.90051E+00
-1.73083E-01	2.67779E-01	3.45819E+00	-7.86394E+00
-1.70064E-03	3.66089E-01	3.45708E+00	-7.82772E+00
2.04286E-01	3.77276E-01	3.45598E+00	-7.79184E+00
4.00828E-01	2.92343E-01	3.45489E+00	-7.75626E+00
5.43786E-01	1.24300E-01	3.45380E+00	-7.72099E+00
5.99693E-01	-9.41659E-02	3.45272E+00	-7.68602E+00
5.54063E-01	-3.17991E-01	3.45164E+00	-7.65133E+00
4.15189E-01	-5.00270E-01	3.45059E+00	-7.61692E+00
2.12348E-01	-6.03380E-01	3.44955E+00	-7.58280E+00
-1.11631E-02	-6.07872E-01	3.44852E+00	-7.54896E+00
-2.08586E-01	-5.16835E-01	3.44750E+00	-7.51538E+00
-3.40683E-01	-3.54597E-01	3.44650E+00	-7.48205E+00
-3.84919E-01	-1.60218E-01	3.44553E+00	-7.44898E+00
-3.40045E-01	2.25273E-02	3.44459E+00	-7.41617E+00
-2.25178E-01	1.55955E-01	3.44369E+00	-7.38364E+00
-7.37626E-02	2.17220E-01	3.44282E+00	-7.35137E+00
7.57931E-02	2.02768E-01	3.44198E+00	-7.31937E+00
1.90170E-01	1.27503E-01	3.44116E+00	-7.28766E+00
2.49167E-01	1.91160E-02	3.44032E+00	-7.25624E+00
2.49497E-01	-9.04970E-02	3.43946E+00	-7.22507E+00
2.03746E-01	-1.74315E-01	3.43857E+00	-7.19412E+00
1.34938E-01	-2.17089E-01	3.43766E+00	-7.16338E+00
6.86158E-02	-2.18263E-01	3.43678E+00	-7.13283E+00
2.48864E-02	-1.90333E-01	3.43594E+00	-7.10248E+00
1.28009E-02	-1.53432E-01	3.43513E+00	-7.07238E+00
2.85437E-02	-1.28008E-01	3.43435E+00	-7.04250E+00
5.78616E-02	-1.27940E-01	3.43357E+00	-7.01285E+00
8.15924E-02	-1.56179E-01	3.43282E+00	-6.98341E+00
8.25306E-02	-2.04132E-01	3.43210E+00	-6.95418E+00
5.13766E-02	-2.54813E-01	3.43141E+00	-6.92520E+00
-1.00399E-02	-2.88596E-01	3.43074E+00	-6.89646E+00
-8.91463E-02	-2.89706E-01	3.43005E+00	-6.86795E+00
-1.66458E-01	-2.51366E-01	3.42934E+00	-6.83965E+00
-2.21349E-01	-1.78125E-01	3.42861E+00	-6.81155E+00
-2.38219E-01	-8.47191E-02	3.42788E+00	-6.78363E+00
-2.10985E-01	8.05292E-03	3.42716E+00	-6.75587E+00
-1.44726E-01	7.90749E-02	3.42646E+00	-6.72830E+00
-5.41450E-02	1.12548E-01	3.42579E+00	-6.70091E+00
4.05499E-02	1.01896E-01	3.42515E+00	-6.67372E+00
1.18981E-01	5.09660E-02	3.42451E+00	-6.64673E+00
1.65607E-01	-2.76283E-02	3.42390E+00	-6.61992E+00
1.72986E-01	-1.16227E-01	3.42330E+00	-6.59331E+00
1.42683E-01	-1.96758E-01	3.42272E+00	-6.56689E+00
8.38084E-02	-2.54885E-01	3.42214E+00	-6.54066E+00
9.92466E-03	-2.82631E-01	3.42156E+00	-6.51463E+00
-6.45926E-02	-2.79050E-01	3.42097E+00	-6.48877E+00
-1.27676E-01	-2.49114E-01	3.42038E+00	-6.46309E+00
-1.71533E-01	-2.01470E-01	3.41979E+00	-6.43757E+00
