jMRUI Data Textfile
 
Filename: Gln.txt
 
PointsInDataset: 2048
DatasetsInFile: 1
SamplingInterval: 5.00000E-01
ZeroOrderPhase: 0E0
BeginTime: 0E0
TransmitterFrequency: 1.27740E+08
MagneticField: 0E0
TypeOfNucleus: 0E0
NameOfPatient: 
DateOfExperiment: 
Spectrometer: Vespa-Simulation
AdditionalInfo: see 'readme' file for Vespa-Simulation output synopsis
 
  
Signal and FFT 
sig(real)	sig(imag)	fft(real)	fft(imag)
Signal 1 out of 1 in file
6.64855E+00	-1.45232E-02	3.45189E+00	-3.99402E+00
3.97909E+00	-1.77269E+00	3.45043E+00	-3.95479E+00
-1.47252E+00	-2.31087E+00	3.44898E+00	-3.91584E+00
-4.91436E+00	-1.31419E+00	3.44757E+00	-3.87715E+00
-3.68360E+00	3.59693E-01	3.44625E+00	-3.83875E+00
5.23844E-01	1.26058E+00	3.44501E+00	-3.80065E+00
3.58661E+00	5.26216E-01	3.44383E+00	-3.76289E+00
2.90484E+00	-1.24668E+00	3.44269E+00	-3.72544E+00
-4.88322E-01	-2.34695E+00	3.44155E+00	-3.68831E+00
-3.36259E+00	-1.44437E+00	3.44042E+00	-3.65145E+00
-3.46072E+00	1.03558E+00	3.43930E+00	-3.61485E+00
-1.24155E+00	3.07590E+00	3.43821E+00	-3.57849E+00
1.11649E+00	2.84381E+00	3.43715E+00	-3.54237E+00
1.97396E+00	4.84163E-01	3.43614E+00	-3.50649E+00
1.40485E+00	-1.88479E+00	3.43516E+00	-3.47086E+00
5.04889E-01	-2.12273E+00	3.43423E+00	-3.43548E+00
3.69986E-02	-1.29457E-01	3.43331E+00	-3.40034E+00
-6.21000E-02	2.04280E+00	3.43240E+00	-3.36544E+00
-1.15325E-01	2.19092E+00	3.43149E+00	-3.33076E+00
-9.45078E-02	1.02862E-01	3.43060E+00	-3.29626E+00
2.32186E-01	-2.28872E+00	3.42975E+00	-3.26196E+00
7.31529E-01	-2.84748E+00	3.42893E+00	-3.22785E+00
8.13926E-01	-1.26789E+00	3.42816E+00	-3.19394E+00
6.49135E-02	8.09020E-01	3.42743E+00	-3.16024E+00
-1.13842E+00	1.56869E+00	3.42672E+00	-3.12676E+00
-1.83515E+00	7.53695E-01	3.42601E+00	-3.09348E+00
-1.38626E+00	-3.70024E-01	3.42529E+00	-3.06038E+00
-1.25861E-01	-5.58855E-01	3.42458E+00	-3.02743E+00
9.43659E-01	1.45310E-01	3.42389E+00	-2.99462E+00
1.08650E+00	7.28971E-01	3.42324E+00	-2.96198E+00
4.35823E-01	5.42396E-01	3.42263E+00	-2.92950E+00
-2.75392E-01	2.27758E-02	3.42203E+00	-2.89720E+00
-4.59283E-01	1.25428E-02	3.42145E+00	-2.86506E+00
-1.03903E-01	5.82797E-01	3.42087E+00	-2.83308E+00
4.16003E-01	8.44668E-01	3.42029E+00	-2.80123E+00
7.62709E-01	3.43618E-02	3.41972E+00	-2.76950E+00
8.04003E-01	-1.39798E+00	3.41917E+00	-2.73788E+00
5.07723E-01	-2.05624E+00	3.41867E+00	-2.70639E+00
-1.03473E-01	-1.06398E+00	3.41821E+00	-2.67504E+00
-8.12090E-01	8.53095E-01	3.41778E+00	-2.64384E+00
-1.16764E+00	1.93722E+00	3.41734E+00	-2.61279E+00
-8.13564E-01	1.13266E+00	3.41688E+00	-2.58186E+00
6.52636E-02	-8.01090E-01	3.41643E+00	-2.55102E+00
7.43936E-01	-1.98520E+00	3.41599E+00	-2.52026E+00
5.87715E-01	-1.24769E+00	3.41559E+00	-2.48960E+00
-2.62100E-01	7.57059E-01	3.41523E+00	-2.45905E+00
-9.30287E-01	2.22127E+00	3.41490E+00	-2.42862E+00
-6.56303E-01	1.91206E+00	3.41457E+00	-2.39831E+00
3.87899E-01	2.32428E-01	3.41423E+00	-2.36811E+00
1.21445E+00	-1.31724E+00	3.41389E+00	-2.33798E+00
1.01792E+00	-1.58550E+00	3.41356E+00	-2.30793E+00
2.30130E-02	-6.70370E-01	3.41324E+00	-2.27795E+00
-7.42905E-01	4.35913E-01	3.41294E+00	-2.24804E+00
-5.37879E-01	8.71902E-01	3.41267E+00	-2.21820E+00
3.08332E-01	5.32066E-01	3.41243E+00	-2.18844E+00
7.67468E-01	-1.28611E-01	3.41221E+00	-2.15876E+00
2.47892E-01	-6.44360E-01	3.41199E+00	-2.12918E+00
-7.44597E-01	-8.11579E-01	3.41178E+00	-2.09966E+00
-1.14657E+00	-5.95135E-01	3.41156E+00	-2.07021E+00
-4.93738E-01	-3.03403E-02	3.41134E+00	-2.04080E+00
5.64152E-01	6.77398E-01	3.41114E+00	-2.01143E+00
9.49785E-01	1.09466E+00	3.41096E+00	-1.98211E+00
3.01214E-01	8.31187E-01	3.41081E+00	-1.95284E+00
-6.57266E-01	-2.54515E-02	3.41068E+00	-1.92363E+00
-8.96352E-01	-8.30971E-01	3.41055E+00	-1.89448E+00
-1.58335E-01	-8.97452E-01	3.41042E+00	-1.86538E+00
8.09852E-01	-1.61857E-01	3.41028E+00	-1.83631E+00
1.06761E+00	6.97347E-01	3.41015E+00	-1.80726E+00
4.31838E-01	8.83603E-01	3.41003E+00	-1.77824E+00
-4.18643E-01	2.45043E-01	3.40993E+00	-1.74923E+00
-7.11614E-01	-6.01465E-01	3.40986E+00	-1.72025E+00
-3.40761E-01	-9.03417E-01	3.40980E+00	-1.69129E+00
1.59477E-01	-4.92026E-01	3.40975E+00	-1.66237E+00
2.81058E-01	1.42132E-01	3.40971E+00	-1.63346E+00
4.88639E-02	4.28911E-01	3.40969E+00	-1.60456E+00
-1.48578E-01	2.80419E-01	3.40968E+00	-1.57568E+00
-9.80761E-02	5.23198E-02	3.40968E+00	-1.54681E+00
1.46692E-02	3.92948E-02	3.40970E+00	-1.51795E+00
-7.18119E-02	1.41486E-01	3.40974E+00	-1.48910E+00
-2.84338E-01	7.35166E-02	3.40978E+00	-1.46027E+00
-2.68232E-01	-1.92315E-01	3.40982E+00	-1.43144E+00
1.41019E-01	-3.33488E-01	3.40985E+00	-1.40261E+00
6.18531E-01	-7.53066E-02	3.40988E+00	-1.37376E+00
6.39962E-01	4.03547E-01	3.40991E+00	-1.34488E+00
7.66584E-02	5.86446E-01	3.40996E+00	-1.31596E+00
-5.87853E-01	1.80553E-01	3.41004E+00	-1.28702E+00
-7.12934E-01	-5.02141E-01	3.41015E+00	-1.25805E+00
-1.66305E-01	-8.11039E-01	3.41029E+00	-1.22906E+00
5.20532E-01	-4.22272E-01	3.41047E+00	-1.20008E+00
6.86783E-01	3.09389E-01	3.41064E+00	-1.17110E+00
2.02306E-01	7.02470E-01	3.41081E+00	-1.14210E+00
-4.35499E-01	4.34443E-01	3.41097E+00	-1.11305E+00
-6.37927E-01	-1.63714E-01	3.41114E+00	-1.08397E+00
-2.99292E-01	-4.92140E-01	3.41132E+00	-1.05487E+00
1.77784E-01	-3.01800E-01	3.41148E+00	-1.02571E+00
3.62700E-01	1.13442E-01	3.41163E+00	-9.96491E-01
2.15423E-01	3.06724E-01	3.41179E+00	-9.67185E-01
1.70816E-02	1.66704E-01	3.41199E+00	-9.37800E-01
-2.36403E-02	-3.61038E-02	3.41223E+00	-9.08350E-01
1.28870E-02	-3.88219E-02	3.41251E+00	-8.78856E-01
-5.47890E-02	9.00124E-02	3.41282E+00	-8.49328E-01
-2.04506E-01	7.56873E-02	3.41313E+00	-8.19756E-01
-2.05857E-01	-1.67277E-01	3.41344E+00	-7.90125E-01
6.42522E-02	-3.76814E-01	3.41375E+00	-7.60426E-01
3.90163E-01	-2.39300E-01	3.41406E+00	-7.30647E-01
3.99585E-01	2.01493E-01	3.41438E+00	-7.00778E-01
-8.75213E-03	5.24360E-01	3.41472E+00	-6.70819E-01
-4.87744E-01	3.64696E-01	3.41508E+00	-6.40774E-01
-5.60935E-01	-1.67239E-01	3.41546E+00	-6.10653E-01
-1.22633E-01	-5.63632E-01	3.41583E+00	-5.80453E-01
4.26225E-01	-4.32577E-01	3.41621E+00	-5.50147E-01
5.72390E-01	9.75147E-02	3.41659E+00	-5.19727E-01
2.04498E-01	5.14324E-01	3.41699E+00	-4.89197E-01
-2.93954E-01	4.45441E-01	3.41741E+00	-4.58543E-01
-4.55816E-01	1.02376E-02	3.41786E+00	-4.27771E-01
-1.93027E-01	-3.49913E-01	3.41834E+00	-3.96904E-01
1.69579E-01	-3.41483E-01	3.41882E+00	-3.65930E-01
2.80888E-01	-7.32299E-02	3.41931E+00	-3.34828E-01
1.17868E-01	1.37634E-01	3.41981E+00	-3.03596E-01
-6.31751E-02	1.34563E-01	3.42033E+00	-2.72229E-01
-6.84100E-02	3.92968E-02	3.42086E+00	-2.40717E-01
2.30507E-02	2.92936E-02	3.42141E+00	-2.09062E-01
9.88181E-03	9.01862E-02	3.42199E+00	-1.77269E-01
-1.36366E-01	5.60742E-02	3.42258E+00	-1.45335E-01
-2.13161E-01	-1.29602E-01	3.42318E+00	-1.13250E-01
-4.55871E-02	-2.83633E-01	3.42379E+00	-8.10041E-02
2.56195E-01	-1.76497E-01	3.42441E+00	-4.85849E-02
3.73321E-01	1.65038E-01	3.42504E+00	-1.59827E-02
1.30116E-01	4.23071E-01	3.42571E+00	1.68017E-02
-2.76121E-01	3.05290E-01	3.42640E+00	4.97644E-02
-4.49019E-01	-1.20586E-01	3.42713E+00	8.29048E-02
-2.02906E-01	-4.59733E-01	3.42787E+00	1.16224E-01
2.33679E-01	-3.82309E-01	3.42864E+00	1.49725E-01
4.45875E-01	3.58654E-02	3.42940E+00	1.83422E-01
2.50162E-01	3.90256E-01	3.43017E+00	2.17339E-01
-1.38966E-01	3.60289E-01	3.43096E+00	2.51490E-01
-3.52116E-01	1.88202E-02	3.43179E+00	2.85865E-01
-2.37538E-01	-2.76486E-01	3.43266E+00	3.20458E-01
2.98653E-02	-2.67713E-01	3.43355E+00	3.55278E-01
1.80942E-01	-3.47066E-02	3.43449E+00	3.90323E-01
1.34808E-01	1.45072E-01	3.43544E+00	4.25580E-01
2.56915E-02	1.20070E-01	3.43637E+00	4.61081E-01
-8.36792E-03	-1.09784E-03	3.43731E+00	4.96865E-01
9.25985E-03	-2.84419E-02	3.43829E+00	5.32932E-01
-3.20271E-02	6.05203E-02	3.43929E+00	5.69285E-01
-1.37521E-01	1.05392E-01	3.44034E+00	6.05925E-01
-1.64718E-01	-1.27795E-02	3.44144E+00	6.42847E-01
-3.80267E-03	-1.93527E-01	3.44258E+00	6.80045E-01
2.40644E-01	-2.14368E-01	3.44374E+00	7.17520E-01
3.15441E-01	8.98160E-04	3.44491E+00	7.55292E-01
9.30830E-02	2.61165E-01	3.44609E+00	7.93401E-01
-2.51526E-01	2.92606E-01	3.44730E+00	8.31859E-01
-3.87243E-01	3.61120E-02	3.44855E+00	8.70661E-01
-1.65415E-01	-2.73350E-01	3.44985E+00	9.09812E-01
2.10681E-01	-3.40641E-01	3.45120E+00	9.49308E-01
3.80514E-01	-1.09006E-01	3.45259E+00	9.89149E-01
1.89015E-01	1.92824E-01	3.45398E+00	1.02936E+00
-1.63372E-01	2.93277E-01	3.45541E+00	1.06998E+00
-3.36233E-01	1.41380E-01	3.45689E+00	1.11101E+00
-1.93735E-01	-7.90234E-02	3.45843E+00	1.15243E+00
8.38932E-02	-1.67396E-01	3.46002E+00	1.19426E+00
2.18327E-01	-9.90103E-02	3.46164E+00	1.23649E+00
1.23857E-01	3.05887E-03	3.46327E+00	1.27916E+00
-4.03727E-02	4.24013E-02	3.46492E+00	1.32231E+00
-8.30460E-02	4.46763E-02	3.46663E+00	1.36595E+00
4.91457E-03	7.54234E-02	3.46840E+00	1.41009E+00
7.24823E-02	1.13549E-01	3.47026E+00	1.45473E+00
1.60268E-02	6.29216E-02	3.47218E+00	1.49986E+00
-8.89441E-02	-1.02956E-01	3.47416E+00	1.54548E+00
-8.76649E-02	-2.54579E-01	3.47619E+00	1.59163E+00
4.97897E-02	-2.16538E-01	3.47825E+00	1.63832E+00
1.72633E-01	2.72328E-02	3.48036E+00	1.68559E+00
1.17292E-01	2.73420E-01	3.48252E+00	1.73345E+00
-9.29691E-02	2.82675E-01	3.48474E+00	1.78193E+00
-2.53253E-01	2.91534E-02	3.48704E+00	1.83104E+00
-1.92245E-01	-2.54515E-01	3.48942E+00	1.88079E+00
3.91773E-02	-2.99693E-01	3.49188E+00	1.93120E+00
2.16772E-01	-6.67228E-02	3.49440E+00	1.98227E+00
1.77279E-01	2.21869E-01	3.49700E+00	2.03404E+00
-1.69631E-02	3.08702E-01	3.49967E+00	2.08654E+00
-1.56484E-01	1.46612E-01	3.50242E+00	2.13979E+00
-1.10611E-01	-8.55335E-02	3.50527E+00	2.19381E+00
4.79625E-02	-1.87278E-01	3.50821E+00	2.24863E+00
1.43415E-01	-1.26128E-01	3.51126E+00	2.30424E+00
9.37359E-02	-2.19613E-02	3.51439E+00	2.36069E+00
-1.74140E-02	1.93428E-02	3.51761E+00	2.41801E+00
-5.85829E-02	1.24833E-02	3.52092E+00	2.47623E+00
-6.62512E-03	2.84427E-02	3.52434E+00	2.53539E+00
4.00503E-02	6.71967E-02	3.52787E+00	2.59553E+00
-5.46925E-03	4.61238E-02	3.53153E+00	2.65667E+00
-1.05712E-01	-7.44745E-02	3.53532E+00	2.71884E+00
-1.40509E-01	-1.94815E-01	3.53926E+00	2.78207E+00
