jMRUI Data Textfile
 
Filename: Glu.txt
 
PointsInDataset: 2048
DatasetsInFile: 1
SamplingInterval: 5.00000E-01
ZeroOrderPhase: 0E0
BeginTime: 0E0
TransmitterFrequency: 1.27740E+08
MagneticField: 0E0
TypeOfNucleus: 0E0
NameOfPatient: 
DateOfExperiment: 
Spectrometer: Vespa-Simulation
AdditionalInfo: see 'readme' file for Vespa-Simulation output synopsis
 
  
Signal and FFT 
sig(real)	sig(imag)	fft(real)	fft(imag)
Signal 1 out of 1 in file
4.71110E+00	-1.48278E-02	2.45941E+00	-5.80648E+00
2.85518E+00	-3.51969E+00	2.45789E+00	-5.77513E+00
-9.30074E-01	-4.00868E+00	2.45639E+00	-5.74415E+00
-3.30182E+00	-1.32352E+00	2.45493E+00	-5.71351E+00
-2.37107E+00	1.86878E+00	2.45349E+00	-5.68322E+00
6.51784E-01	2.62926E+00	2.45209E+00	-5.65326E+00
2.72213E+00	4.40177E-01	2.45072E+00	-5.62363E+00
1.84675E+00	-2.44901E+00	2.44939E+00	-5.59432E+00
-1.14104E+00	-3.22783E+00	2.44808E+00	-5.56534E+00
-3.48614E+00	-1.12416E+00	2.44681E+00	-5.53666E+00
-3.11292E+00	2.00311E+00	2.44556E+00	-5.50830E+00
-4.45305E-01	3.48961E+00	2.44435E+00	-5.48023E+00
2.14950E+00	2.28352E+00	2.44315E+00	-5.45247E+00
2.60638E+00	-2.72186E-01	2.44198E+00	-5.42499E+00
9.33732E-01	-1.85571E+00	2.44082E+00	-5.39780E+00
-1.03084E+00	-1.30508E+00	2.43969E+00	-5.37088E+00
-1.45568E+00	5.04952E-01	2.43858E+00	-5.34422E+00
-1.29682E-01	1.69030E+00	2.43750E+00	-5.31783E+00
1.55441E+00	1.15140E+00	2.43645E+00	-5.29170E+00
2.03017E+00	-5.54932E-01	2.43542E+00	-5.26584E+00
9.47973E-01	-1.91536E+00	2.43441E+00	-5.24024E+00
-6.93820E-01	-1.89315E+00	2.43341E+00	-5.21489E+00
-1.60117E+00	-7.26921E-01	2.43241E+00	-5.18978E+00
-1.30828E+00	4.97055E-01	2.43144E+00	-5.16489E+00
-3.85566E-01	9.08321E-01	2.43050E+00	-5.14024E+00
2.68665E-01	5.08277E-01	2.42959E+00	-5.11581E+00
2.45850E-01	-5.97613E-02	2.42870E+00	-5.09163E+00
-1.76727E-01	-2.21111E-01	2.42782E+00	-5.06767E+00
-4.72624E-01	7.63385E-02	2.42696E+00	-5.04395E+00
-3.79480E-01	4.87962E-01	2.42610E+00	-5.02044E+00
-1.51843E-02	6.89363E-01	2.42526E+00	-4.99713E+00
3.69991E-01	6.13321E-01	2.42444E+00	-4.97402E+00
6.36106E-01	3.59393E-01	2.42364E+00	-4.95112E+00
7.54763E-01	1.03774E-02	2.42286E+00	-4.92842E+00
6.84563E-01	-3.88267E-01	2.42211E+00	-4.90594E+00
3.65968E-01	-7.16909E-01	2.42136E+00	-4.88366E+00
-1.32387E-01	-7.71144E-01	2.42061E+00	-4.86158E+00
-5.39253E-01	-4.49893E-01	2.41988E+00	-4.83968E+00
-5.60135E-01	5.50520E-02	2.41916E+00	-4.81796E+00
-1.83010E-01	3.42117E-01	2.41846E+00	-4.79642E+00
2.29261E-01	1.56059E-01	2.41777E+00	-4.77507E+00
2.31677E-01	-3.18695E-01	2.41711E+00	-4.75390E+00
-2.59945E-01	-5.68594E-01	2.41645E+00	-4.73292E+00
-8.22456E-01	-2.23922E-01	2.41580E+00	-4.71212E+00
-8.75551E-01	5.42613E-01	2.41515E+00	-4.69148E+00
-2.36949E-01	1.10944E+00	2.41452E+00	-4.67101E+00
6.51632E-01	9.53280E-01	2.41389E+00	-4.65071E+00
1.08150E+00	1.52696E-01	2.41326E+00	-4.63057E+00
7.14115E-01	-6.44516E-01	2.41266E+00	-4.61058E+00
-9.58107E-02	-7.90083E-01	2.41206E+00	-4.59075E+00
-6.11167E-01	-2.24135E-01	2.41148E+00	-4.57108E+00
-3.83498E-01	4.69203E-01	2.41091E+00	-4.55157E+00
3.36522E-01	6.00950E-01	2.41034E+00	-4.53221E+00
8.33569E-01	1.46050E-02	2.40978E+00	-4.51300E+00
5.90657E-01	-7.69007E-01	2.40923E+00	-4.49394E+00
-2.33613E-01	-1.03081E+00	2.40869E+00	-4.47502E+00
-9.50222E-01	-5.09765E-01	2.40815E+00	-4.45624E+00
-9.64325E-01	3.66528E-01	2.40763E+00	-4.43761E+00
-3.00822E-01	8.76666E-01	2.40712E+00	-4.41912E+00
4.41126E-01	6.49952E-01	2.40661E+00	-4.40076E+00
6.41955E-01	-2.80458E-02	2.40611E+00	-4.38254E+00
2.05379E-01	-5.07232E-01	2.40561E+00	-4.36445E+00
-3.93104E-01	-3.70674E-01	2.40513E+00	-4.34648E+00
-5.67727E-01	2.11760E-01	2.40467E+00	-4.32865E+00
-1.51873E-01	6.73488E-01	2.40422E+00	-4.31096E+00
4.79206E-01	5.80645E-01	2.40377E+00	-4.29340E+00
7.73359E-01	8.29042E-03	2.40333E+00	-4.27597E+00
4.96184E-01	-5.57703E-01	2.40288E+00	-4.25868E+00
-8.93491E-02	-6.70352E-01	2.40242E+00	-4.24149E+00
-4.89924E-01	-3.00216E-01	2.40198E+00	-4.22442E+00
-4.23307E-01	1.80933E-01	2.40154E+00	-4.20745E+00
-3.41266E-02	3.59696E-01	2.40113E+00	-4.19060E+00
2.79951E-01	1.38040E-01	2.40073E+00	-4.17387E+00
2.40219E-01	-2.20907E-01	2.40034E+00	-4.15727E+00
-8.63437E-02	-3.63258E-01	2.39995E+00	-4.14080E+00
-3.84471E-01	-1.61587E-01	2.39955E+00	-4.12444E+00
-3.90235E-01	1.99750E-01	2.39915E+00	-4.10818E+00
-1.11103E-01	4.16461E-01	2.39876E+00	-4.09202E+00
2.11734E-01	3.34454E-01	2.39837E+00	-4.07596E+00
3.33132E-01	5.85530E-02	2.39800E+00	-4.06001E+00
2.05379E-01	-1.70267E-01	2.39764E+00	-4.04416E+00
-1.41854E-02	-1.92596E-01	2.39729E+00	-4.02843E+00
-1.26417E-01	-4.65324E-02	2.39694E+00	-4.01280E+00
-6.13235E-02	9.87466E-02	2.39659E+00	-3.99728E+00
8.69302E-02	1.06744E-01	2.39624E+00	-3.98186E+00
1.67119E-01	-1.78343E-02	2.39590E+00	-3.96653E+00
1.06955E-01	-1.56148E-01	2.39556E+00	-3.95130E+00
-3.93311E-02	-1.91802E-01	2.39523E+00	-3.93616E+00
-1.55065E-01	-1.05255E-01	2.39491E+00	-3.92111E+00
-1.64160E-01	2.66550E-02	2.39460E+00	-3.90617E+00
-8.28503E-02	1.07713E-01	2.39429E+00	-3.89133E+00
1.10961E-02	9.94782E-02	2.39399E+00	-3.87658E+00
5.05437E-02	3.76764E-02	2.39368E+00	-3.86193E+00
2.73145E-02	-1.21456E-02	2.39337E+00	-3.84736E+00
-1.56443E-02	-1.20543E-02	2.39307E+00	-3.83288E+00
-2.98552E-02	2.50246E-02	2.39277E+00	-3.81848E+00
-1.20424E-03	5.66156E-02	2.39248E+00	-3.80417E+00
4.52155E-02	5.05410E-02	2.39220E+00	-3.78995E+00
7.16422E-02	8.99006E-03	2.39193E+00	-3.77583E+00
5.91040E-02	-3.82827E-02	2.39165E+00	-3.76179E+00
1.91390E-02	-6.05623E-02	2.39136E+00	-3.74783E+00
-1.93989E-02	-4.90777E-02	2.39108E+00	-3.73396E+00
-3.43121E-02	-1.97058E-02	2.39080E+00	-3.72016E+00
-2.50626E-02	3.26247E-03	2.39053E+00	-3.70644E+00
-8.78876E-03	7.04841E-03	2.39027E+00	-3.69279E+00
-3.15607E-03	-1.94081E-03	2.39001E+00	-3.67923E+00
-1.14043E-02	-7.20592E-03	2.38976E+00	-3.66575E+00
-2.16399E-02	1.39893E-03	2.38950E+00	-3.65235E+00
-1.96006E-02	1.85614E-02	2.38925E+00	-3.63904E+00
-2.69050E-03	2.91855E-02	2.38899E+00	-3.62579E+00
1.74127E-02	2.29512E-02	2.38873E+00	-3.61261E+00
2.55496E-02	4.11274E-03	2.38849E+00	-3.59949E+00
1.69876E-02	-1.24204E-02	2.38826E+00	-3.58646E+00
1.42094E-03	-1.48597E-02	2.38803E+00	-3.57351E+00
-6.57377E-03	-5.11984E-03	2.38780E+00	-3.56063E+00
-1.46218E-03	3.77674E-03	2.38757E+00	-3.54782E+00
8.26718E-03	9.20055E-04	2.38733E+00	-3.53509E+00
8.91144E-03	-1.13941E-02	2.38710E+00	-3.52241E+00
-4.27048E-03	-1.95646E-02	2.38687E+00	-3.50980E+00
-2.13086E-02	-1.20584E-02	2.38665E+00	-3.49726E+00
-2.61933E-02	8.46674E-03	2.38644E+00	-3.48479E+00
-1.21490E-02	2.62435E-02	2.38623E+00	-3.47239E+00
1.10049E-02	2.62974E-02	2.38602E+00	-3.46006E+00
2.48830E-02	8.44852E-03	2.38582E+00	-3.44779E+00
1.90124E-02	-1.19297E-02	2.38562E+00	-3.43560E+00
5.14255E-04	-1.76345E-02	2.38540E+00	-3.42347E+00
-1.23396E-02	-5.40918E-03	2.38520E+00	-3.41139E+00
-7.11767E-03	1.09646E-02	2.38500E+00	-3.39937E+00
1.08962E-02	1.35109E-02	2.38481E+00	-3.38743E+00
2.32358E-02	-2.79826E-03	2.38461E+00	-3.37554E+00
1.53988E-02	-2.45889E-02	2.38442E+00	-3.36371E+00
-9.10336E-03	-3.17594E-02	2.38425E+00	-3.35196E+00
-3.09931E-02	-1.59076E-02	2.38406E+00	-3.34027E+00
-3.21496E-02	1.14266E-02	2.38386E+00	-3.32863E+00
-1.19385E-02	2.85523E-02	2.38367E+00	-3.31704E+00
1.20428E-02	2.28112E-02	2.38349E+00	-3.30552E+00
1.96908E-02	1.76233E-03	2.38330E+00	-3.29405E+00
6.41110E-03	-1.38822E-02	2.38312E+00	-3.28262E+00
-1.29587E-02	-9.23413E-03	2.38297E+00	-3.27127E+00
-1.79196E-02	1.11188E-02	2.38280E+00	-3.25999E+00
-1.31907E-03	2.72090E-02	2.38262E+00	-3.24877E+00
2.36710E-02	2.19208E-02	2.38244E+00	-3.23759E+00
3.50366E-02	-3.09048E-03	2.38226E+00	-3.22646E+00
2.16672E-02	-2.82172E-02	2.38208E+00	-3.21538E+00
-6.31601E-03	-3.29227E-02	2.38191E+00	-3.20434E+00
-2.60359E-02	-1.39301E-02	2.38175E+00	-3.19335E+00
-2.18170E-02	1.16253E-02	2.38162E+00	-3.18243E+00
8.96094E-04	2.10993E-02	2.38148E+00	-3.17158E+00
2.01305E-02	6.40611E-03	2.38131E+00	-3.16079E+00
1.67967E-02	-1.84303E-02	2.38114E+00	-3.15005E+00
-7.90252E-03	-2.92713E-02	2.38097E+00	-3.13933E+00
-3.25995E-02	-1.34052E-02	2.38081E+00	-3.12866E+00
-3.40465E-02	1.81536E-02	2.38066E+00	-3.11804E+00
-8.13474E-03	3.90188E-02	2.38051E+00	-3.10748E+00
2.49497E-02	3.01866E-02	2.38036E+00	-3.09696E+00
3.71025E-02	-2.26181E-03	2.38022E+00	-3.08650E+00
1.70309E-02	-3.07541E-02	2.38008E+00	-3.07608E+00
-1.82813E-02	-2.95072E-02	2.37995E+00	-3.06570E+00
-3.68013E-02	1.94121E-03	2.37983E+00	-3.05539E+00
-1.94645E-02	3.62638E-02	2.37970E+00	-3.04514E+00
2.12397E-02	4.10444E-02	2.37956E+00	-3.03495E+00
4.99357E-02	8.14542E-03	2.37939E+00	-3.02478E+00
3.88690E-02	-3.65529E-02	2.37923E+00	-3.01464E+00
-5.80378E-03	-5.38767E-02	2.37909E+00	-3.00453E+00
-4.66060E-02	-2.62602E-02	2.37897E+00	-2.99446E+00
-4.65186E-02	2.41354E-02	2.37886E+00	-2.98446E+00
-3.20058E-03	5.24305E-02	2.37876E+00	-2.97452E+00
4.58889E-02	3.05822E-02	2.37864E+00	-2.96464E+00
5.47651E-02	-2.52387E-02	2.37850E+00	-2.95480E+00
1.07565E-02	-6.58787E-02	2.37836E+00	-2.94499E+00
-5.10524E-02	-5.18700E-02	2.37822E+00	-2.93521E+00
-7.63302E-02	9.49815E-03	2.37809E+00	-2.92546E+00
-3.98482E-02	6.74203E-02	2.37797E+00	-2.91576E+00
2.95506E-02	7.10221E-02	2.37785E+00	-2.90611E+00
7.19719E-02	1.56599E-02	2.37774E+00	-2.89650E+00
4.92440E-02	-5.03398E-02	2.37762E+00	-2.88694E+00
-1.92015E-02	-6.69968E-02	2.37750E+00	-2.87742E+00
-7.12198E-02	-1.68052E-02	2.37737E+00	-2.86793E+00
-5.65447E-02	5.72050E-02	2.37725E+00	-2.85849E+00
1.68558E-02	8.76583E-02	2.37713E+00	-2.84908E+00
8.71922E-02	4.27127E-02	2.37702E+00	-2.83970E+00
9.20464E-02	-4.37020E-02	2.37690E+00	-2.83037E+00
2.40389E-02	-9.96615E-02	2.37679E+00	-2.82108E+00
-6.09830E-02	-7.77649E-02	2.37668E+00	-2.81183E+00
-9.17792E-02	2.57409E-03	2.37657E+00	-2.80262E+00
-4.41030E-02	7.12760E-02	2.37645E+00	-2.79344E+00
3.75801E-02	6.87614E-02	2.37634E+00	-2.78430E+00
7.87929E-02	-1.49063E-03	2.37624E+00	-2.77519E+00
4.05472E-02	-7.55024E-02	2.37614E+00	-2.76612E+00
-4.58827E-02	-8.46089E-02	2.37604E+00	-2.75708E+00
-1.05512E-01	-1.57208E-02	2.37594E+00	-2.74809E+00
