jMRUI Data Textfile
 
Filename: GSH.txt
 
PointsInDataset: 2048
DatasetsInFile: 1
SamplingInterval: 5.00000E-01
ZeroOrderPhase: 0E0
BeginTime: 0E0
TransmitterFrequency: 1.27740E+08
MagneticField: 0E0
TypeOfNucleus: 0E0
NameOfPatient: 
DateOfExperiment: 
Spectrometer: Vespa-Simulation
AdditionalInfo: see 'readme' file for Vespa-Simulation output synopsis
 
  
Signal and FFT 
sig(real)	sig(imag)	fft(real)	fft(imag)
Signal 1 out of 1 in file
1.03469E+01	-1.61784E-02	1.04819E+01	-2.76253E+01
7.62045E+00	-4.46162E+00	9.94874E+00	-2.68729E+01
1.68094E+00	-6.36765E+00	9.49120E+00	-2.61701E+01
-3.23737E+00	-5.10613E+00	9.09664E+00	-2.55123E+01
-4.14183E+00	-2.15464E+00	8.75473E+00	-2.48961E+01
-1.46564E+00	2.17865E-01	8.45695E+00	-2.43181E+01
1.69180E+00	6.87768E-01	8.19621E+00	-2.37753E+01
2.40283E+00	-3.59997E-01	7.96672E+00	-2.32649E+01
2.80541E-01	-1.48945E+00	7.76372E+00	-2.27840E+01
-2.54923E+00	-1.53603E+00	7.58330E+00	-2.23302E+01
-3.58123E+00	-4.27597E-01	7.42222E+00	-2.19012E+01
-2.10793E+00	1.03726E+00	7.27779E+00	-2.14949E+01
4.35988E-01	2.02453E+00	7.14776E+00	-2.11094E+01
2.03398E+00	2.26778E+00	7.03027E+00	-2.07429E+01
1.94040E+00	1.99978E+00	6.92375E+00	-2.03940E+01
1.13182E+00	1.48750E+00	6.82686E+00	-2.00613E+01
1.10743E+00	7.46433E-01	6.73847E+00	-1.97436E+01
2.31880E+00	-3.12543E-01	6.65760E+00	-1.94396E+01
3.73075E+00	-1.57133E+00	6.58342E+00	-1.91485E+01
3.84227E+00	-2.64666E+00	6.51519E+00	-1.88693E+01
2.12055E+00	-3.17233E+00	6.45226E+00	-1.86011E+01
-5.02111E-01	-3.10038E+00	6.39410E+00	-1.83433E+01
-2.45873E+00	-2.67589E+00	6.34022E+00	-1.80951E+01
-2.85807E+00	-2.11840E+00	6.29023E+00	-1.78558E+01
-2.07141E+00	-1.38958E+00	6.24374E+00	-1.76250E+01
-1.16618E+00	-3.41633E-01	6.20042E+00	-1.74020E+01
-8.48031E-01	9.02367E-01	6.15999E+00	-1.71865E+01
-9.41183E-01	1.80313E+00	6.12218E+00	-1.69779E+01
-8.07332E-01	1.77163E+00	6.08677E+00	-1.67759E+01
-1.59198E-01	7.75064E-01	6.05359E+00	-1.65800E+01
6.05564E-01	-4.36149E-01	6.02244E+00	-1.63901E+01
8.67910E-01	-8.31896E-01	5.99313E+00	-1.62056E+01
5.23305E-01	2.41613E-03	5.96548E+00	-1.60264E+01
1.82884E-01	1.37625E+00	5.93937E+00	-1.58522E+01
5.79169E-01	1.94193E+00	5.91472E+00	-1.56826E+01
1.73722E+00	7.98695E-01	5.89144E+00	-1.55174E+01
2.75504E+00	-1.66433E+00	5.86943E+00	-1.53565E+01
2.49201E+00	-3.94862E+00	5.84861E+00	-1.51996E+01
6.02539E-01	-4.55879E+00	5.82888E+00	-1.50466E+01
-2.01697E+00	-3.14616E+00	5.81013E+00	-1.48973E+01
-3.81551E+00	-7.39414E-01	5.79228E+00	-1.47515E+01
-3.75676E+00	1.10647E+00	5.77528E+00	-1.46091E+01
-2.10093E+00	1.50438E+00	5.75909E+00	-1.44698E+01
-1.58576E-01	7.86262E-01	5.74365E+00	-1.43336E+01
7.57754E-01	2.52372E-02	5.72894E+00	-1.42003E+01
3.08686E-01	3.49036E-02	5.71490E+00	-1.40698E+01
-7.37247E-01	7.40218E-01	5.70147E+00	-1.39420E+01
-1.24374E+00	1.40125E+00	5.68860E+00	-1.38168E+01
-6.51084E-01	1.37994E+00	5.67631E+00	-1.36940E+01
6.44242E-01	7.00953E-01	5.66458E+00	-1.35736E+01
1.71028E+00	-6.97149E-02	5.65338E+00	-1.34556E+01
1.86766E+00	-4.30558E-01	5.64266E+00	-1.33397E+01
1.17117E+00	-4.10099E-01	5.63236E+00	-1.32261E+01
2.42877E-01	-4.58471E-01	5.62241E+00	-1.31145E+01
-3.16867E-01	-9.15668E-01	5.61277E+00	-1.30048E+01
-4.02201E-01	-1.60598E+00	5.60351E+00	-1.28970E+01
-3.86243E-01	-1.96007E+00	5.59468E+00	-1.27910E+01
-6.93596E-01	-1.54086E+00	5.58625E+00	-1.26867E+01
-1.36940E+00	-4.64654E-01	5.57817E+00	-1.25843E+01
-2.01202E+00	6.77150E-01	5.57034E+00	-1.24836E+01
-2.10235E+00	1.31024E+00	5.56271E+00	-1.23845E+01
-1.43577E+00	1.31907E+00	5.55529E+00	-1.22869E+01
-3.02937E-01	1.04658E+00	5.54809E+00	-1.21908E+01
7.11031E-01	8.95420E-01	5.54114E+00	-1.20960E+01
1.13622E+00	9.39558E-01	5.53449E+00	-1.20026E+01
9.21023E-01	9.13836E-01	5.52812E+00	-1.19105E+01
4.18295E-01	5.58012E-01	5.52202E+00	-1.18198E+01
9.25774E-02	-5.50123E-02	5.51614E+00	-1.17304E+01
1.82465E-01	-5.49581E-01	5.51044E+00	-1.16424E+01
5.59382E-01	-6.11510E-01	5.50489E+00	-1.15555E+01
8.60390E-01	-3.21137E-01	5.49948E+00	-1.14698E+01
7.71641E-01	-1.08225E-01	5.49422E+00	-1.13852E+01
2.46726E-01	-3.44408E-01	5.48911E+00	-1.13017E+01
-4.84237E-01	-9.48707E-01	5.48418E+00	-1.12193E+01
-1.09268E+00	-1.39260E+00	5.47941E+00	-1.11379E+01
-1.36410E+00	-1.13458E+00	5.47482E+00	-1.10575E+01
-1.29009E+00	-1.14472E-01	5.47037E+00	-1.09781E+01
-1.00031E+00	1.13455E+00	5.46604E+00	-1.08997E+01
-6.24634E-01	1.87220E+00	5.46179E+00	-1.08222E+01
-2.15206E-01	1.71846E+00	5.45766E+00	-1.07456E+01
2.19090E-01	9.26873E-01	5.45365E+00	-1.06699E+01
6.28284E-01	1.44480E-01	5.44978E+00	-1.05950E+01
8.95269E-01	-1.22963E-01	5.44604E+00	-1.05209E+01
9.12732E-01	1.14746E-01	5.44243E+00	-1.04477E+01
6.93718E-01	4.13987E-01	5.43891E+00	-1.03753E+01
3.97858E-01	3.29693E-01	5.43547E+00	-1.03037E+01
2.23232E-01	-1.94409E-01	5.43211E+00	-1.02328E+01
2.42782E-01	-8.03853E-01	5.42885E+00	-1.01627E+01
3.31541E-01	-1.06688E+00	5.42568E+00	-1.00933E+01
2.65150E-01	-8.46530E-01	5.42259E+00	-1.00246E+01
-8.04832E-02	-3.86592E-01	5.41958E+00	-9.95654E+00
-5.97961E-01	-5.98293E-02	5.41666E+00	-9.88916E+00
-1.00770E+00	-2.64430E-02	5.41381E+00	-9.82244E+00
-1.06794E+00	-1.13165E-01	5.41104E+00	-9.75635E+00
-7.61029E-01	-8.61676E-03	5.40834E+00	-9.69089E+00
-2.97393E-01	4.16582E-01	5.40571E+00	-9.62602E+00
6.44411E-02	9.60116E-01	5.40315E+00	-9.56175E+00
2.22354E-01	1.24295E+00	5.40065E+00	-9.49805E+00
2.81356E-01	1.02882E+00	5.39821E+00	-9.43490E+00
4.13182E-01	4.27208E-01	5.39585E+00	-9.37229E+00
6.61117E-01	-1.93074E-01	5.39358E+00	-9.31023E+00
8.76218E-01	-4.98744E-01	5.39137E+00	-9.24873E+00
8.47767E-01	-4.40382E-01	5.38919E+00	-9.18777E+00
5.09161E-01	-2.50939E-01	5.38703E+00	-9.12729E+00
2.58741E-02	-2.12912E-01	5.38492E+00	-9.06729E+00
-3.24568E-01	-4.07369E-01	5.38285E+00	-9.00775E+00
-3.80650E-01	-6.58715E-01	5.38083E+00	-8.94865E+00
-2.30154E-01	-7.08102E-01	5.37888E+00	-8.88998E+00
-1.25956E-01	-4.49623E-01	5.37703E+00	-8.83177E+00
-2.54505E-01	-1.99509E-02	5.37522E+00	-8.77404E+00
-5.60806E-01	3.27651E-01	5.37342E+00	-8.71675E+00
-7.86307E-01	4.41351E-01	5.37165E+00	-8.65986E+00
-6.89277E-01	3.83337E-01	5.36991E+00	-8.60335E+00
-2.56290E-01	3.43016E-01	5.36820E+00	-8.54722E+00
2.78345E-01	4.39512E-01	5.36656E+00	-8.49142E+00
6.19629E-01	5.98622E-01	5.36503E+00	-8.43601E+00
6.41466E-01	6.17557E-01	5.36356E+00	-8.38103E+00
4.62872E-01	3.57801E-01	5.36210E+00	-8.32645E+00
3.14497E-01	-1.09597E-01	5.36064E+00	-8.27223E+00
3.23503E-01	-5.40366E-01	5.35920E+00	-8.21834E+00
4.09599E-01	-7.06760E-01	5.35777E+00	-8.16478E+00
3.78164E-01	-5.76563E-01	5.35637E+00	-8.11150E+00
1.17729E-01	-3.26448E-01	5.35503E+00	-8.05851E+00
-2.81383E-01	-1.80702E-01	5.35377E+00	-8.00585E+00
-5.93725E-01	-2.18136E-01	5.35254E+00	-7.95353E+00
-6.48179E-01	-3.15070E-01	5.35133E+00	-7.90152E+00
-4.68689E-01	-2.70342E-01	5.35013E+00	-7.84979E+00
-2.42264E-01	2.17754E-03	5.34895E+00	-7.79835E+00
-1.47120E-01	3.84766E-01	5.34778E+00	-7.74716E+00
-1.97777E-01	6.48011E-01	5.34663E+00	-7.69621E+00
-2.44538E-01	6.41204E-01	5.34554E+00	-7.64549E+00
-1.23787E-01	4.13412E-01	5.34452E+00	-7.59502E+00
1.80167E-01	1.61847E-01	5.34357E+00	-7.54481E+00
5.07941E-01	5.68651E-02	5.34266E+00	-7.49490E+00
6.56059E-01	9.97305E-02	5.34175E+00	-7.44526E+00
5.47766E-01	1.36474E-01	5.34083E+00	-7.39588E+00
2.91980E-01	1.09750E-02	5.33988E+00	-7.34670E+00
8.10107E-02	-2.81844E-01	5.33892E+00	-7.29770E+00
2.16478E-02	-5.79092E-01	5.33799E+00	-7.24884E+00
5.13349E-02	-6.82720E-01	5.33712E+00	-7.20015E+00
1.17173E-02	-5.23945E-01	5.33634E+00	-7.15166E+00
-1.90006E-01	-2.15837E-01	5.33559E+00	-7.10340E+00
-4.79295E-01	4.76026E-02	5.33485E+00	-7.05534E+00
-6.64862E-01	1.52386E-01	5.33410E+00	-7.00747E+00
-5.98267E-01	1.43242E-01	5.33336E+00	-6.95974E+00
-3.02681E-01	1.56452E-01	5.33264E+00	-6.91213E+00
4.11785E-02	2.75050E-01	5.33198E+00	-6.86463E+00
2.39295E-01	4.42578E-01	5.33143E+00	-6.81728E+00
2.34276E-01	5.13321E-01	5.33098E+00	-6.77013E+00
1.35075E-01	3.90662E-01	5.33056E+00	-6.72322E+00
1.07037E-01	1.24174E-01	5.33012E+00	-6.67654E+00
2.22160E-01	-1.25522E-01	5.32961E+00	-6.63002E+00
3.98694E-01	-2.23655E-01	5.32902E+00	-6.58362E+00
4.77006E-01	-1.75554E-01	5.32836E+00	-6.53725E+00
3.60188E-01	-1.13910E-01	5.32773E+00	-6.49086E+00
9.62569E-02	-1.69737E-01	5.32723E+00	-6.44451E+00
-1.65013E-01	-3.44129E-01	5.32683E+00	-6.39830E+00
-2.97092E-01	-4.98281E-01	5.32644E+00	-6.35222E+00
-2.92537E-01	-4.72922E-01	5.32606E+00	-6.30621E+00
-2.49787E-01	-2.31196E-01	5.32576E+00	-6.26023E+00
-2.69199E-01	1.02855E-01	5.32557E+00	-6.21437E+00
-3.54074E-01	3.44260E-01	5.32545E+00	-6.16868E+00
-4.04668E-01	3.96079E-01	5.32531E+00	-6.12316E+00
-3.09058E-01	3.14982E-01	5.32509E+00	-6.07776E+00
-5.07794E-02	2.38920E-01	5.32479E+00	-6.03240E+00
2.60535E-01	2.48435E-01	5.32443E+00	-5.98700E+00
4.63156E-01	2.92397E-01	5.32409E+00	-5.94155E+00
4.61981E-01	2.46792E-01	5.32383E+00	-5.89605E+00
2.96014E-01	4.96016E-02	5.32369E+00	-5.85057E+00
1.02590E-01	-2.19006E-01	5.32362E+00	-5.80515E+00
9.66838E-03	-3.92520E-01	5.32359E+00	-5.75979E+00
4.28088E-02	-3.64230E-01	5.32359E+00	-5.71449E+00
1.17192E-01	-1.89392E-01	5.32358E+00	-5.66922E+00
1.14801E-01	-4.36340E-02	5.32356E+00	-5.62395E+00
-1.88211E-02	-6.73587E-02	5.32356E+00	-5.57866E+00
-2.33741E-01	-2.33326E-01	5.32358E+00	-5.53334E+00
-4.16918E-01	-3.60258E-01	5.32363E+00	-5.48800E+00
-4.76245E-01	-2.67865E-01	5.32370E+00	-5.44263E+00
-3.99214E-01	5.88935E-02	5.32382E+00	-5.39723E+00
-2.45384E-01	4.41095E-01	5.32396E+00	-5.35180E+00
-8.87387E-02	6.41511E-01	5.32413E+00	-5.30634E+00
3.59731E-02	5.50635E-01	5.32430E+00	-5.26085E+00
1.39612E-01	2.65818E-01	5.32447E+00	-5.21528E+00
2.40314E-01	2.73701E-04	5.32465E+00	-5.16961E+00
3.24261E-01	-9.43125E-02	5.32488E+00	-5.12383E+00
3.46683E-01	-3.78265E-02	5.32517E+00	-5.07797E+00
2.74247E-01	2.33589E-02	5.32550E+00	-5.03203E+00
1.27661E-01	-3.48609E-02	5.32588E+00	-4.98601E+00
-2.05870E-02	-2.00162E-01	5.32628E+00	-4.93991E+00
-9.86996E-02	-3.42645E-01	5.32670E+00	-4.89370E+00
-9.48286E-02	-3.40224E-01	5.32714E+00	-4.84737E+00
