jMRUI Data Textfile
 
Filename: mI.txt
 
PointsInDataset: 2048
DatasetsInFile: 1
SamplingInterval: 5.00000E-01
ZeroOrderPhase: 0E0
BeginTime: 0E0
TransmitterFrequency: 1.27740E+08
MagneticField: 0E0
TypeOfNucleus: 0E0
NameOfPatient: 
DateOfExperiment: 
Spectrometer: Vespa-Simulation
AdditionalInfo: see 'readme' file for Vespa-Simulation output synopsis
 
  
Signal and FFT 
sig(real)	sig(imag)	fft(real)	fft(imag)
Signal 1 out of 1 in file
5.88055E+00	-4.49626E-03	3.28378E+00	-1.39372E+01
5.24502E+00	-2.48276E+00	3.27760E+00	-1.38240E+01
3.59758E+00	-4.38964E+00	3.27160E+00	-1.37127E+01
1.32384E+00	-5.34019E+00	3.26577E+00	-1.36032E+01
-1.06407E+00	-5.17851E+00	3.26010E+00	-1.34956E+01
-3.05252E+00	-4.00550E+00	3.25459E+00	-1.33896E+01
-4.24679E+00	-2.14286E+00	3.24923E+00	-1.32854E+01
-4.45642E+00	-4.55044E-02	3.24403E+00	-1.31828E+01
-3.72633E+00	1.81327E+00	3.23897E+00	-1.30819E+01
-2.30910E+00	3.05328E+00	3.23404E+00	-1.29825E+01
-5.89370E-01	3.46844E+00	3.22925E+00	-1.28846E+01
1.01712E+00	3.05913E+00	3.22458E+00	-1.27883E+01
2.16287E+00	2.01256E+00	3.22003E+00	-1.26934E+01
2.64207E+00	6.40521E-01	3.21559E+00	-1.26000E+01
2.42265E+00	-7.05848E-01	3.21127E+00	-1.25079E+01
1.63400E+00	-1.72080E+00	3.20706E+00	-1.24172E+01
5.18346E-01	-2.20799E+00	3.20294E+00	-1.23278E+01
-6.37524E-01	-2.11079E+00	3.19893E+00	-1.22396E+01
-1.57138E+00	-1.50679E+00	3.19502E+00	-1.21528E+01
-2.09898E+00	-5.72714E-01	3.19121E+00	-1.20672E+01
-2.14191E+00	4.66715E-01	3.18749E+00	-1.19827E+01
-1.72812E+00	1.39175E+00	3.18386E+00	-1.18995E+01
-9.70356E-01	2.03005E+00	3.18033E+00	-1.18174E+01
-3.17591E-02	2.28154E+00	3.17688E+00	-1.17364E+01
9.10935E-01	2.12462E+00	3.17351E+00	-1.16566E+01
1.69870E+00	1.60726E+00	3.17022E+00	-1.15778E+01
2.21170E+00	8.29043E-01	3.16700E+00	-1.15001E+01
2.38036E+00	-8.00232E-02	3.16385E+00	-1.14234E+01
2.18827E+00	-9.79644E-01	3.16076E+00	-1.13477E+01
1.66946E+00	-1.73676E+00	3.15774E+00	-1.12731E+01
9.02180E-01	-2.24052E+00	3.15477E+00	-1.11994E+01
-4.02582E-04	-2.41524E+00	3.15185E+00	-1.11266E+01
-9.03150E-01	-2.23136E+00	3.14898E+00	-1.10548E+01
-1.66622E+00	-1.71281E+00	3.14617E+00	-1.09838E+01
-2.16626E+00	-9.37871E-01	3.14342E+00	-1.09137E+01
-2.31849E+00	-3.14109E-02	3.14073E+00	-1.08445E+01
-2.09564E+00	8.53429E-01	3.13812E+00	-1.07761E+01
-1.53801E+00	1.56185E+00	3.13557E+00	-1.07086E+01
-7.50674E-01	1.96802E+00	3.13309E+00	-1.06419E+01
1.14258E-01	2.00307E+00	3.13066E+00	-1.05760E+01
8.87393E-01	1.67254E+00	3.12828E+00	-1.05109E+01
1.41856E+00	1.05816E+00	3.12594E+00	-1.04466E+01
1.61068E+00	3.01701E-01	3.12363E+00	-1.03830E+01
1.44292E+00	-4.26287E-01	3.12136E+00	-1.03202E+01
9.76074E-01	-9.65650E-01	3.11912E+00	-1.02582E+01
3.38252E-01	-1.20445E+00	3.11693E+00	-1.01968E+01
-3.06047E-01	-1.10526E+00	3.11478E+00	-1.01361E+01
-7.96217E-01	-7.13427E-01	3.11268E+00	-1.00761E+01
-1.01465E+00	-1.44621E-01	3.11064E+00	-1.00168E+01
-9.14874E-01	4.44914E-01	3.10864E+00	-9.95815E+00
-5.31572E-01	8.97997E-01	3.10668E+00	-9.90018E+00
2.99002E-02	1.09547E+00	3.10475E+00	-9.84285E+00
6.21475E-01	9.84930E-01	3.10285E+00	-9.78616E+00
1.09008E+00	5.91896E-01	3.10097E+00	-9.73008E+00
1.31553E+00	1.13046E-02	3.09913E+00	-9.67461E+00
1.23882E+00	-6.17747E-01	3.09732E+00	-9.61972E+00
8.74264E-01	-1.14722E+00	3.09556E+00	-9.56542E+00
3.03301E-01	-1.45569E+00	3.09384E+00	-9.51171E+00
-3.47625E-01	-1.47585E+00	3.09215E+00	-9.45858E+00
-9.38599E-01	-1.20740E+00	3.09048E+00	-9.40601E+00
-1.34889E+00	-7.13441E-01	3.08883E+00	-9.35400E+00
-1.50299E+00	-1.02200E-01	3.08720E+00	-9.30252E+00
-1.38410E+00	5.00023E-01	3.08560E+00	-9.25156E+00
-1.03321E+00	9.77987E-01	3.08403E+00	-9.20112E+00
-5.35249E-01	1.25125E+00	3.08249E+00	-9.15119E+00
3.10747E-03	1.28804E+00	3.08099E+00	-9.10177E+00
4.78188E-01	1.10690E+00	3.07952E+00	-9.05285E+00
8.10342E-01	7.67234E-01	3.07806E+00	-9.00443E+00
9.57591E-01	3.52339E-01	3.07663E+00	-8.95649E+00
9.19475E-01	-5.05150E-02	3.07521E+00	-8.90903E+00
7.31777E-01	-3.68298E-01	3.07382E+00	-8.86203E+00
4.54517E-01	-5.54818E-01	3.07245E+00	-8.81547E+00
1.56763E-01	-5.96366E-01	3.07112E+00	-8.76938E+00
-9.83204E-02	-5.10021E-01	3.06981E+00	-8.72373E+00
-2.65031E-01	-3.36148E-01	3.06853E+00	-8.67854E+00
-3.21884E-01	-1.27519E-01	3.06725E+00	-8.63379E+00
-2.72861E-01	6.24886E-02	3.06598E+00	-8.58947E+00
-1.43803E-01	1.90378E-01	3.06471E+00	-8.54557E+00
2.47486E-02	2.29973E-01	3.06345E+00	-8.50205E+00
1.86635E-01	1.76100E-01	3.06221E+00	-8.45892E+00
2.99421E-01	4.42306E-02	3.06101E+00	-8.41618E+00
3.32503E-01	-1.33543E-01	3.05985E+00	-8.37383E+00
2.72736E-01	-3.15227E-01	3.05872E+00	-8.33188E+00
1.26838E-01	-4.57316E-01	3.05761E+00	-8.29034E+00
-7.99095E-02	-5.23402E-01	3.05650E+00	-8.24918E+00
-3.08321E-01	-4.91479E-01	3.05540E+00	-8.20840E+00
-5.12784E-01	-3.58734E-01	3.05430E+00	-8.16797E+00
-6.50160E-01	-1.42746E-01	3.05322E+00	-8.12790E+00
-6.88525E-01	1.21355E-01	3.05216E+00	-8.08817E+00
-6.13946E-01	3.87196E-01	3.05112E+00	-8.04878E+00
-4.33929E-01	6.06108E-01	3.05011E+00	-8.00975E+00
-1.76594E-01	7.36778E-01	3.04912E+00	-7.97107E+00
1.14498E-01	7.53726E-01	3.04813E+00	-7.93273E+00
3.88651E-01	6.52629E-01	3.04716E+00	-7.89472E+00
5.98130E-01	4.51468E-01	3.04621E+00	-7.85705E+00
7.07716E-01	1.86921E-01	3.04527E+00	-7.81970E+00
7.01569E-01	-9.29914E-02	3.04433E+00	-7.78269E+00
5.86160E-01	-3.38721E-01	3.04338E+00	-7.74598E+00
3.88437E-01	-5.09125E-01	3.04243E+00	-7.70958E+00
1.49717E-01	-5.79512E-01	3.04149E+00	-7.67345E+00
-8.31712E-02	-5.45905E-01	3.04056E+00	-7.63761E+00
-2.67693E-01	-4.24951E-01	3.03966E+00	-7.60204E+00
-3.74091E-01	-2.49429E-01	3.03881E+00	-7.56675E+00
-3.90843E-01	-6.05202E-02	3.03799E+00	-7.53177E+00
-3.25929E-01	1.01243E-01	3.03721E+00	-7.49710E+00
-2.03989E-01	2.04527E-01	3.03643E+00	-7.46275E+00
-6.00051E-02	2.33342E-01	3.03564E+00	-7.42870E+00
6.88456E-02	1.89541E-01	3.03484E+00	-7.39493E+00
1.51445E-01	9.14403E-02	3.03402E+00	-7.36141E+00
1.69271E-01	-3.10515E-02	3.03321E+00	-7.32815E+00
1.19947E-01	-1.43599E-01	3.03240E+00	-7.29513E+00
1.71665E-02	-2.15210E-01	3.03161E+00	-7.26236E+00
-1.12805E-01	-2.25056E-01	3.03085E+00	-7.22985E+00
-2.37213E-01	-1.66891E-01	3.03010E+00	-7.19759E+00
-3.24149E-01	-5.02235E-02	3.02935E+00	-7.16559E+00
-3.49492E-01	1.01824E-01	3.02860E+00	-7.13383E+00
-3.02159E-01	2.57530E-01	3.02787E+00	-7.10229E+00
-1.86504E-01	3.83349E-01	3.02716E+00	-7.07098E+00
-2.15340E-02	4.50927E-01	3.02649E+00	-7.03990E+00
1.62945E-01	4.43083E-01	3.02586E+00	-7.00907E+00
3.32351E-01	3.57429E-01	3.02527E+00	-6.97850E+00
4.54356E-01	2.06922E-01	3.02470E+00	-6.94823E+00
5.05321E-01	1.73711E-02	3.02409E+00	-6.91823E+00
4.75048E-01	-1.77712E-01	3.02344E+00	-6.88847E+00
3.68741E-01	-3.43729E-01	3.02272E+00	-6.85893E+00
2.05835E-01	-4.51815E-01	3.02196E+00	-6.82956E+00
1.60633E-02	-4.84332E-01	3.02118E+00	-6.80032E+00
-1.66519E-01	-4.38126E-01	3.02044E+00	-6.77121E+00
-3.10229E-01	-3.24799E-01	3.01980E+00	-6.74225E+00
-3.91816E-01	-1.68070E-01	3.01926E+00	-6.71353E+00
-4.00732E-01	1.29237E-03	3.01878E+00	-6.68508E+00
-3.40656E-01	1.51585E-01	3.01832E+00	-6.65689E+00
-2.28274E-01	2.56453E-01	3.01787E+00	-6.62895E+00
-8.94753E-02	2.99816E-01	3.01740E+00	-6.60129E+00
4.61303E-02	2.78610E-01	3.01687E+00	-6.57386E+00
1.51224E-01	2.02868E-01	3.01626E+00	-6.54663E+00
2.06145E-01	9.32211E-02	3.01559E+00	-6.51952E+00
2.02584E-01	-2.35963E-02	3.01492E+00	-6.49254E+00
1.44950E-01	-1.20383E-01	3.01428E+00	-6.46569E+00
4.91924E-02	-1.74967E-01	3.01369E+00	-6.43899E+00
-6.06000E-02	-1.74754E-01	3.01315E+00	-6.41246E+00
-1.57219E-01	-1.19307E-01	3.01267E+00	-6.38613E+00
-2.15983E-01	-2.05491E-02	3.01223E+00	-6.36001E+00
-2.19975E-01	9.94976E-02	3.01181E+00	-6.33414E+00
-1.63861E-01	2.13038E-01	3.01135E+00	-6.30849E+00
-5.54658E-02	2.92201E-01	3.01085E+00	-6.28301E+00
8.51794E-02	3.14914E-01	3.01032E+00	-6.25769E+00
2.29434E-01	2.70008E-01	3.00979E+00	-6.23251E+00
3.45632E-01	1.60316E-01	3.00926E+00	-6.20747E+00
4.05695E-01	3.03785E-03	3.00876E+00	-6.18259E+00
3.91465E-01	-1.72942E-01	3.00827E+00	-6.15786E+00
2.99385E-01	-3.32441E-01	3.00781E+00	-6.13330E+00
1.42281E-01	-4.41250E-01	3.00736E+00	-6.10891E+00
-5.22024E-02	-4.73562E-01	3.00691E+00	-6.08470E+00
-2.46705E-01	-4.18277E-01	3.00645E+00	-6.06066E+00
-4.01751E-01	-2.82357E-01	3.00599E+00	-6.03676E+00
-4.84358E-01	-9.03371E-02	3.00553E+00	-6.01300E+00
-4.75704E-01	1.20205E-01	3.00507E+00	-5.98938E+00
-3.75983E-01	3.06440E-01	3.00464E+00	-5.96591E+00
-2.05146E-01	4.29683E-01	3.00422E+00	-5.94260E+00
1.03949E-03	4.64329E-01	3.00381E+00	-5.91944E+00
1.98578E-01	4.03926E-01	3.00340E+00	-5.89644E+00
3.45225E-01	2.63114E-01	3.00299E+00	-5.87359E+00
4.10221E-01	7.45271E-02	3.00258E+00	-5.85089E+00
3.81522E-01	-1.18625E-01	3.00217E+00	-5.82832E+00
2.68658E-01	-2.72618E-01	3.00176E+00	-5.80589E+00
1.00459E-01	-3.53470E-01	3.00135E+00	-5.78359E+00
-8.19696E-02	-3.44923E-01	3.00096E+00	-5.76142E+00
-2.35035E-01	-2.52028E-01	3.00058E+00	-5.73939E+00
-3.23135E-01	-9.96402E-02	3.00020E+00	-5.71751E+00
-3.26970E-01	7.39208E-02	2.99983E+00	-5.69577E+00
-2.47744E-01	2.26343E-01	2.99945E+00	-5.67416E+00
-1.06297E-01	3.21519E-01	2.99907E+00	-5.65268E+00
6.24739E-02	3.37917E-01	2.99869E+00	-5.63133E+00
2.18465E-01	2.73127E-01	2.99831E+00	-5.61010E+00
3.25890E-01	1.43591E-01	2.99793E+00	-5.58899E+00
3.61464E-01	-2.01099E-02	2.99757E+00	-5.56800E+00
3.19053E-01	-1.81074E-01	2.99722E+00	-5.54714E+00
2.09996E-01	-3.04840E-01	2.99687E+00	-5.52642E+00
5.93533E-02	-3.66908E-01	2.99651E+00	-5.50582E+00
-1.00673E-01	-3.57326E-01	2.99615E+00	-5.48533E+00
-2.38271E-01	-2.81546E-01	2.99579E+00	-5.46494E+00
-3.28709E-01	-1.57715E-01	2.99545E+00	-5.44466E+00
-3.58500E-01	-1.16243E-02	2.99512E+00	-5.42451E+00
-3.26755E-01	1.29334E-01	2.99481E+00	-5.40448E+00
-2.43654E-01	2.41577E-01	2.99450E+00	-5.38458E+00
-1.26989E-01	3.09048E-01	2.99419E+00	-5.36481E+00
2.05444E-03	3.24794E-01	2.99388E+00	-5.34515E+00
1.22812E-01	2.90600E-01	2.99355E+00	-5.32560E+00
2.18129E-01	2.15265E-01	2.99321E+00	-5.30616E+00
2.75958E-01	1.12354E-01	2.99288E+00	-5.28680E+00
