jMRUI Data Textfile
 
Filename: NAA.txt
 
PointsInDataset: 2048
DatasetsInFile: 1
SamplingInterval: 5.00000E-01
ZeroOrderPhase: 0E0
BeginTime: 0E0
TransmitterFrequency: 1.27740E+08
MagneticField: 0E0
TypeOfNucleus: 0E0
NameOfPatient: 
DateOfExperiment: 
Spectrometer: Vespa-Simulation
AdditionalInfo: see 'readme' file for Vespa-Simulation output synopsis
 
  
Signal and FFT 
sig(real)	sig(imag)	fft(real)	fft(imag)
Signal 1 out of 1 in file
6.52674E+00	-1.60802E-02	4.42174E+00	-9.94732E+00
3.63200E+00	-3.19867E+00	4.36918E+00	-9.79109E+00
-1.85363E+00	-3.84412E+00	4.32000E+00	-9.64071E+00
-4.37442E+00	-1.47496E+00	4.27399E+00	-9.49586E+00
-1.86773E+00	1.88204E+00	4.23092E+00	-9.35625E+00
2.47196E+00	3.22483E+00	4.19056E+00	-9.22162E+00
4.12830E+00	1.26966E+00	4.15266E+00	-9.09166E+00
2.04039E+00	-2.14220E+00	4.11704E+00	-8.96609E+00
-9.62140E-01	-3.70295E+00	4.08356E+00	-8.84467E+00
-1.82535E+00	-2.02827E+00	4.05206E+00	-8.72719E+00
-4.25121E-01	8.39449E-01	4.02238E+00	-8.61344E+00
1.01877E+00	1.70423E+00	3.99440E+00	-8.50322E+00
8.48165E-01	-1.54574E-01	3.96801E+00	-8.39633E+00
-4.07304E-01	-2.22613E+00	3.94312E+00	-8.29265E+00
-1.10303E+00	-1.86100E+00	3.91959E+00	-8.19201E+00
-4.82110E-01	4.67451E-01	3.89734E+00	-8.09428E+00
6.74164E-01	1.73379E+00	3.87627E+00	-7.99931E+00
1.05461E+00	1.34556E-01	3.85631E+00	-7.90697E+00
1.30455E-01	-2.54827E+00	3.83737E+00	-7.81714E+00
-1.41224E+00	-2.97029E+00	3.81939E+00	-7.72970E+00
-2.24718E+00	-2.66692E-01	3.80231E+00	-7.64456E+00
-1.47953E+00	2.76138E+00	3.78605E+00	-7.56162E+00
4.74814E-01	2.78852E+00	3.77055E+00	-7.48078E+00
1.95981E+00	-2.45243E-01	3.75575E+00	-7.40190E+00
1.41155E+00	-3.07988E+00	3.74165E+00	-7.32489E+00
-9.74451E-01	-2.76550E+00	3.72822E+00	-7.24968E+00
-3.03312E+00	2.31636E-01	3.71545E+00	-7.17625E+00
-2.59067E+00	2.78086E+00	3.70325E+00	-7.10454E+00
1.46864E-01	2.53021E+00	3.69156E+00	-7.03446E+00
2.50356E+00	1.36000E-01	3.68036E+00	-6.96594E+00
2.03857E+00	-1.82290E+00	3.66960E+00	-6.89889E+00
-7.44758E-01	-1.61713E+00	3.65928E+00	-6.83326E+00
-2.83083E+00	1.86593E-01	3.64938E+00	-6.76898E+00
-1.98160E+00	1.69421E+00	3.63988E+00	-6.70600E+00
7.81416E-01	1.63132E+00	3.63077E+00	-6.64427E+00
2.37256E+00	3.21755E-01	3.62202E+00	-6.58375E+00
1.15588E+00	-8.79131E-01	3.61363E+00	-6.52439E+00
-1.27929E+00	-8.82542E-01	3.60559E+00	-6.46616E+00
-2.06970E+00	2.28930E-01	3.59788E+00	-6.40904E+00
-3.87601E-01	1.31981E+00	3.59046E+00	-6.35300E+00
1.73690E+00	1.24108E+00	3.58332E+00	-6.29797E+00
1.88341E+00	-2.60609E-02	3.57644E+00	-6.24392E+00
-5.03042E-03	-1.21859E+00	3.56984E+00	-6.19083E+00
-1.70963E+00	-9.99393E-01	3.56348E+00	-6.13868E+00
-1.34948E+00	5.41807E-01	3.55734E+00	-6.08743E+00
5.88232E-01	1.77942E+00	3.55141E+00	-6.03704E+00
1.96533E+00	1.22595E+00	3.54569E+00	-5.98750E+00
1.39618E+00	-7.11934E-01	3.54014E+00	-5.93876E+00
-3.98182E-01	-1.98702E+00	3.53477E+00	-5.89080E+00
-1.54735E+00	-1.12627E+00	3.52957E+00	-5.84358E+00
-1.00513E+00	1.02025E+00	3.52454E+00	-5.79708E+00
5.51700E-01	2.10511E+00	3.51968E+00	-5.75128E+00
1.57262E+00	8.87954E-01	3.51498E+00	-5.70614E+00
1.15216E+00	-1.32927E+00	3.51047E+00	-5.66167E+00
-2.32703E-01	-2.13224E+00	3.50611E+00	-5.61788E+00
-1.26860E+00	-6.89959E-01	3.50187E+00	-5.57473E+00
-1.01918E+00	1.35444E+00	3.49775E+00	-5.53217E+00
2.45162E-01	1.77370E+00	3.49377E+00	-5.49017E+00
1.29179E+00	2.19875E-01	3.48995E+00	-5.44877E+00
1.07234E+00	-1.50765E+00	3.48625E+00	-5.40795E+00
-2.27694E-01	-1.55763E+00	3.48265E+00	-5.36769E+00
-1.29663E+00	-2.15565E-02	3.47915E+00	-5.32796E+00
-1.00016E+00	1.33505E+00	3.47573E+00	-5.28875E+00
3.79127E-01	1.10619E+00	3.47241E+00	-5.25002E+00
1.35435E+00	-3.09373E-01	3.46919E+00	-5.21178E+00
8.18821E-01	-1.31413E+00	3.46606E+00	-5.17400E+00
-6.80310E-01	-8.94107E-01	3.46303E+00	-5.13670E+00
-1.47585E+00	4.05199E-01	3.46007E+00	-5.09984E+00
-6.34428E-01	1.19309E+00	3.45719E+00	-5.06341E+00
9.41974E-01	7.05208E-01	3.45439E+00	-5.02739E+00
1.48228E+00	-5.01371E-01	3.45168E+00	-4.99177E+00
3.42511E-01	-1.19354E+00	3.44905E+00	-4.95657E+00
-1.23739E+00	-6.89966E-01	3.44650E+00	-4.92175E+00
-1.50500E+00	5.12411E-01	3.44404E+00	-4.88732E+00
-1.50587E-01	1.23813E+00	3.44167E+00	-4.85329E+00
1.35829E+00	7.60059E-01	3.43933E+00	-4.81965E+00
1.41031E+00	-4.86759E-01	3.43704E+00	-4.78636E+00
-6.60055E-03	-1.28914E+00	3.43481E+00	-4.75338E+00
-1.35904E+00	-8.27410E-01	3.43267E+00	-4.72076E+00
-1.26537E+00	4.74448E-01	3.43059E+00	-4.68850E+00
7.90797E-02	1.31862E+00	3.42853E+00	-4.65658E+00
1.22776E+00	8.38174E-01	3.42651E+00	-4.62495E+00
1.06440E+00	-4.79030E-01	3.42455E+00	-4.59362E+00
-1.08233E-01	-1.26813E+00	3.42264E+00	-4.56262E+00
-1.02410E+00	-7.25027E-01	3.42073E+00	-4.53189E+00
-8.17311E-01	5.30605E-01	3.41890E+00	-4.50140E+00
1.69401E-01	1.13409E+00	3.41716E+00	-4.47121E+00
8.60007E-01	4.71620E-01	3.41545E+00	-4.44134E+00
5.88174E-01	-6.64601E-01	3.41372E+00	-4.41171E+00
-2.78302E-01	-9.90023E-01	3.41209E+00	-4.38228E+00
-7.87992E-01	-1.72803E-01	3.41058E+00	-4.35318E+00
-4.07513E-01	8.18869E-01	3.40901E+00	-4.32439E+00
4.41482E-01	8.37071E-01	3.40745E+00	-4.29575E+00
8.29453E-01	-1.45944E-01	3.40602E+00	-4.26736E+00
2.94770E-01	-1.01762E+00	3.40460E+00	-4.23929E+00
-6.42323E-01	-7.78919E-01	3.40315E+00	-4.21142E+00
-9.82158E-01	3.45744E-01	3.40175E+00	-4.18373E+00
-2.92924E-01	1.15538E+00	3.40042E+00	-4.15628E+00
7.78517E-01	7.71905E-01	3.39909E+00	-4.12907E+00
1.12125E+00	-4.29191E-01	3.39777E+00	-4.10205E+00
3.18483E-01	-1.22443E+00	3.39650E+00	-4.07520E+00
-8.64553E-01	-8.12043E-01	3.39529E+00	-4.04857E+00
-1.22961E+00	3.88741E-01	3.39408E+00	-4.02216E+00
-3.86251E-01	1.19227E+00	3.39288E+00	-3.99592E+00
8.24965E-01	8.39882E-01	3.39173E+00	-3.96984E+00
1.19415E+00	-2.79663E-01	3.39064E+00	-3.94396E+00
3.86570E-01	-1.06178E+00	3.38958E+00	-3.91829E+00
-7.40849E-01	-7.88922E-01	3.38852E+00	-3.89281E+00
-1.06036E+00	1.99457E-01	3.38748E+00	-3.86747E+00
-3.29264E-01	9.00312E-01	3.38649E+00	-3.84230E+00
6.27796E-01	6.67606E-01	3.38554E+00	-3.81733E+00
8.39478E-01	-1.76156E-01	3.38461E+00	-3.79254E+00
1.86132E-01	-7.28977E-01	3.38367E+00	-3.76793E+00
-5.59171E-01	-4.63300E-01	3.38274E+00	-3.74349E+00
-6.12414E-01	2.56613E-01	3.38179E+00	-3.71920E+00
4.76431E-03	6.15091E-01	3.38083E+00	-3.69502E+00
5.56631E-01	2.44014E-01	3.37989E+00	-3.67093E+00
4.30814E-01	-3.97280E-01	3.37901E+00	-3.64697E+00
-2.06757E-01	-5.59103E-01	3.37818E+00	-3.62314E+00
-6.21449E-01	-4.76675E-02	3.37739E+00	-3.59945E+00
-3.27506E-01	5.58854E-01	3.37666E+00	-3.57590E+00
3.74426E-01	5.58334E-01	3.37597E+00	-3.55253E+00
7.13284E-01	-8.63575E-02	3.37528E+00	-3.52933E+00
2.81541E-01	-6.90340E-01	3.37459E+00	-3.50627E+00
-5.02334E-01	-5.85049E-01	3.37389E+00	-3.48334E+00
-8.11193E-01	1.53067E-01	3.37320E+00	-3.46053E+00
-2.85039E-01	7.69491E-01	3.37252E+00	-3.43784E+00
5.60842E-01	6.19457E-01	3.37183E+00	-3.41526E+00
8.51586E-01	-1.58434E-01	3.37116E+00	-3.39278E+00
2.69954E-01	-7.81976E-01	3.37050E+00	-3.37041E+00
-5.95729E-01	-6.23282E-01	3.36986E+00	-3.34814E+00
-8.56671E-01	1.57941E-01	3.36922E+00	-3.32597E+00
-2.51540E-01	7.80779E-01	3.36859E+00	-3.30389E+00
5.86168E-01	6.29808E-01	3.36801E+00	-3.28190E+00
8.00398E-01	-1.32445E-01	3.36746E+00	-3.26001E+00
2.01808E-01	-7.35912E-01	3.36693E+00	-3.23824E+00
-5.63702E-01	-5.80283E-01	3.36642E+00	-3.21658E+00
-7.15981E-01	1.62454E-01	3.36590E+00	-3.19503E+00
-1.42230E-01	7.29054E-01	3.36539E+00	-3.17356E+00
5.33142E-01	5.47885E-01	3.36488E+00	-3.15217E+00
6.31879E-01	-1.75969E-01	3.36440E+00	-3.13086E+00
1.05654E-01	-6.81913E-01	3.36395E+00	-3.10964E+00
-4.70019E-01	-4.54424E-01	3.36352E+00	-3.08853E+00
-5.22286E-01	2.40206E-01	3.36309E+00	-3.06752E+00
-4.59176E-02	6.52578E-01	3.36265E+00	-3.04659E+00
4.43700E-01	3.60484E-01	3.36221E+00	-3.02573E+00
4.62379E-01	-2.89539E-01	3.36177E+00	-3.00494E+00
2.99336E-02	-5.83600E-01	3.36132E+00	-2.98422E+00
-3.86968E-01	-2.29107E-01	3.36089E+00	-2.96354E+00
-3.65931E-01	3.45614E-01	3.36048E+00	-2.94291E+00
4.96694E-02	4.95461E-01	3.36012E+00	-2.92235E+00
4.09505E-01	7.94675E-02	3.35978E+00	-2.90187E+00
3.27698E-01	-4.09381E-01	3.35946E+00	-2.88147E+00
-1.10167E-01	-4.22151E-01	3.35915E+00	-2.86115E+00
-4.27433E-01	3.52498E-02	3.35883E+00	-2.84090E+00
-2.61188E-01	4.35358E-01	3.35851E+00	-2.82069E+00
2.28690E-01	3.33467E-01	3.35823E+00	-2.80052E+00
5.03585E-01	-1.51201E-01	3.35798E+00	-2.78044E+00
2.27141E-01	-4.89453E-01	3.35775E+00	-2.76045E+00
-3.35942E-01	-3.22812E-01	3.35750E+00	-2.74054E+00
-5.72841E-01	1.70569E-01	3.35721E+00	-2.72069E+00
-1.91696E-01	4.84192E-01	3.35691E+00	-2.70085E+00
4.25708E-01	3.06900E-01	3.35663E+00	-2.68104E+00
6.12247E-01	-1.81279E-01	3.35637E+00	-2.66128E+00
1.45573E-01	-5.04851E-01	3.35610E+00	-2.64157E+00
-4.90647E-01	-3.54981E-01	3.35585E+00	-2.62187E+00
-6.23049E-01	1.25792E-01	3.35563E+00	-2.60222E+00
-1.19015E-01	4.83858E-01	3.35541E+00	-2.58262E+00
4.78136E-01	3.79311E-01	3.35520E+00	-2.56304E+00
5.49212E-01	-9.07646E-02	3.35501E+00	-2.54349E+00
5.73167E-02	-4.73704E-01	3.35486E+00	-2.52398E+00
-4.51259E-01	-3.91608E-01	3.35472E+00	-2.50453E+00
-4.62705E-01	7.77068E-02	3.35459E+00	-2.48512E+00
-2.31225E-02	4.60637E-01	3.35447E+00	-2.46575E+00
3.71227E-01	3.64456E-01	3.35435E+00	-2.44644E+00
3.35171E-01	-1.04282E-01	3.35422E+00	-2.42716E+00
-3.10217E-02	-4.39990E-01	3.35408E+00	-2.40791E+00
-3.12649E-01	-2.81384E-01	3.35394E+00	-2.38867E+00
-2.40913E-01	1.86215E-01	3.35380E+00	-2.36946E+00
6.42038E-02	4.32530E-01	3.35366E+00	-2.35025E+00
2.69487E-01	1.80719E-01	3.35353E+00	-2.33104E+00
1.80183E-01	-2.74605E-01	3.35341E+00	-2.31184E+00
-9.18165E-02	-4.04505E-01	3.35332E+00	-2.29265E+00
-2.64647E-01	-5.67988E-02	3.35325E+00	-2.27347E+00
-1.62879E-01	3.66866E-01	3.35320E+00	-2.25430E+00
1.19498E-01	3.75662E-01	3.35319E+00	-2.23515E+00
3.03564E-01	-4.51834E-02	3.35320E+00	-2.21602E+00
1.87532E-01	-4.22039E-01	3.35324E+00	-2.19692E+00
-1.40801E-01	-3.36528E-01	3.35330E+00	-2.17786E+00
-3.57957E-01	1.09311E-01	3.35337E+00	-2.15884E+00
-2.16557E-01	4.25846E-01	3.35343E+00	-2.13985E+00
