jMRUI Data Textfile
 
Filename: PE.txt
 
PointsInDataset: 2048
DatasetsInFile: 1
SamplingInterval: 5.00000E-01
ZeroOrderPhase: 0E0
BeginTime: 0E0
TransmitterFrequency: 1.27740E+08
MagneticField: 0E0
TypeOfNucleus: 0E0
NameOfPatient: 
DateOfExperiment: 
Spectrometer: Vespa-Simulation
AdditionalInfo: see 'readme' file for Vespa-Simulation output synopsis
 
  
Signal and FFT 
sig(real)	sig(imag)	fft(real)	fft(imag)
Signal 1 out of 1 in file
3.62768E+00	1.36023E-03	2.14398E+00	-9.19394E+00
3.20747E+00	-1.51400E+00	2.13746E+00	-9.11147E+00
2.15133E+00	-2.61501E+00	2.13113E+00	-9.03052E+00
7.71181E-01	-3.05643E+00	2.12501E+00	-8.95107E+00
-5.49818E-01	-2.79929E+00	2.11907E+00	-8.87306E+00
-1.48076E+00	-2.01076E+00	2.11330E+00	-8.79644E+00
-1.84337E+00	-9.96885E-01	2.10769E+00	-8.72119E+00
-1.65670E+00	-9.36180E-02	2.10225E+00	-8.64725E+00
-1.11389E+00	4.45725E-01	2.09698E+00	-8.57459E+00
-5.01797E-01	5.28308E-01	2.09185E+00	-8.50317E+00
-9.36457E-02	2.40310E-01	2.08688E+00	-8.43298E+00
-5.25350E-02	-1.97471E-01	2.08204E+00	-8.36397E+00
-3.78439E-01	-5.18830E-01	2.07734E+00	-8.29612E+00
-9.15283E-01	-5.13512E-01	2.07277E+00	-8.22938E+00
-1.41333E+00	-1.05041E-01	2.06832E+00	-8.16373E+00
-1.62330E+00	6.21236E-01	2.06399E+00	-8.09915E+00
-1.38852E+00	1.44820E+00	2.05978E+00	-8.03560E+00
-7.03254E-01	2.10304E+00	2.05568E+00	-7.97306E+00
2.82274E-01	2.35203E+00	2.05169E+00	-7.91151E+00
1.31051E+00	2.08102E+00	2.04780E+00	-7.85092E+00
2.10097E+00	1.33444E+00	2.04402E+00	-7.79126E+00
2.44114E+00	3.00729E-01	2.04033E+00	-7.73253E+00
2.25301E+00	-7.49423E-01	2.03673E+00	-7.67468E+00
1.61373E+00	-1.55010E+00	2.03322E+00	-7.61770E+00
7.25230E-01	-1.92246E+00	2.02980E+00	-7.56157E+00
-1.55281E-01	-1.82534E+00	2.02647E+00	-7.50626E+00
-7.99174E-01	-1.35871E+00	2.02321E+00	-7.45177E+00
-1.07614E+00	-7.21004E-01	2.02004E+00	-7.39808E+00
-9.87404E-01	-1.36911E-01	2.01694E+00	-7.34516E+00
-6.53118E-01	2.18756E-01	2.01391E+00	-7.29298E+00
-2.60810E-01	2.75373E-01	2.01095E+00	-7.24155E+00
5.70213E-03	8.17091E-02	2.00807E+00	-7.19084E+00
3.16074E-02	-2.20937E-01	2.00525E+00	-7.14084E+00
-1.91439E-01	-4.56373E-01	2.00249E+00	-7.09153E+00
-5.67273E-01	-4.80542E-01	1.99979E+00	-7.04289E+00
-9.34081E-01	-2.34348E-01	1.99715E+00	-6.99490E+00
-1.12526E+00	2.35481E-01	1.99459E+00	-6.94756E+00
-1.03027E+00	7.93451E-01	1.99208E+00	-6.90087E+00
-6.34503E-01	1.26302E+00	1.98961E+00	-6.85480E+00
-2.51519E-02	1.48774E+00	1.98720E+00	-6.80933E+00
6.37771E-01	1.38424E+00	1.98483E+00	-6.76444E+00
1.17453E+00	9.69483E-01	1.98252E+00	-6.72013E+00
1.44374E+00	3.53990E-01	1.98027E+00	-6.67639E+00
1.38627E+00	-2.95658E-01	1.97807E+00	-6.63321E+00
1.04046E+00	-8.10975E-01	1.97591E+00	-6.59059E+00
5.25157E-01	-1.07414E+00	1.97379E+00	-6.54850E+00
-2.39026E-03	-1.05121E+00	1.97171E+00	-6.50694E+00
-3.98637E-01	-7.96367E-01	1.96967E+00	-6.46588E+00
-5.77899E-01	-4.27165E-01	1.96768E+00	-6.42532E+00
-5.34474E-01	-8.08184E-02	1.96573E+00	-6.38525E+00
-3.36735E-01	1.32853E-01	1.96383E+00	-6.34568E+00
-9.68167E-02	1.65710E-01	1.96196E+00	-6.30658E+00
7.22671E-02	4.22141E-02	1.96013E+00	-6.26796E+00
9.67567E-02	-1.55400E-01	1.95833E+00	-6.22978E+00
-3.39773E-02	-3.21000E-01	1.95656E+00	-6.19206E+00
-2.67072E-01	-3.64771E-01	1.95483E+00	-6.15477E+00
-5.08175E-01	-2.45582E-01	1.95314E+00	-6.11792E+00
-6.56981E-01	1.52337E-02	1.95147E+00	-6.08150E+00
-6.43504E-01	3.42576E-01	1.94984E+00	-6.04548E+00
-4.52450E-01	6.34634E-01	1.94824E+00	-6.00988E+00
-1.28004E-01	7.98221E-01	1.94667E+00	-5.97468E+00
2.41861E-01	7.80070E-01	1.94513E+00	-5.93988E+00
5.55140E-01	5.83520E-01	1.94362E+00	-5.90546E+00
7.29179E-01	2.65761E-01	1.94213E+00	-5.87143E+00
7.26070E-01	-8.24880E-02	1.94066E+00	-5.83776E+00
5.62261E-01	-3.67251E-01	1.93923E+00	-5.80446E+00
2.99869E-01	-5.20932E-01	1.93782E+00	-5.77151E+00
2.38292E-02	-5.21351E-01	1.93645E+00	-5.73892E+00
-1.86792E-01	-3.94867E-01	1.93510E+00	-5.70669E+00
-2.83363E-01	-2.03380E-01	1.93377E+00	-5.67480E+00
-2.60321E-01	-2.07202E-02	1.93247E+00	-5.64325E+00
-1.52441E-01	9.28530E-02	1.93120E+00	-5.61203E+00
-1.89427E-02	1.09505E-01	1.92994E+00	-5.58114E+00
7.93615E-02	4.00940E-02	1.92869E+00	-5.55057E+00
1.01520E-01	-7.32905E-02	1.92747E+00	-5.52032E+00
3.93791E-02	-1.74941E-01	1.92627E+00	-5.49036E+00
-8.18275E-02	-2.16567E-01	1.92509E+00	-5.46071E+00
-2.14593E-01	-1.74278E-01	1.92393E+00	-5.43136E+00
-3.07242E-01	-5.59816E-02	1.92280E+00	-5.40232E+00
-3.22450E-01	1.02703E-01	1.92167E+00	-5.37357E+00
-2.49752E-01	2.51873E-01	1.92055E+00	-5.34508E+00
-1.08135E-01	3.44943E-01	1.91947E+00	-5.31685E+00
6.14519E-02	3.54082E-01	1.91844E+00	-5.28891E+00
2.10549E-01	2.78540E-01	1.91744E+00	-5.26128E+00
2.99266E-01	1.43407E-01	1.91643E+00	-5.23395E+00
3.08395E-01	-1.00021E-02	1.91540E+00	-5.20689E+00
2.43961E-01	-1.38398E-01	1.91437E+00	-5.18006E+00
1.33175E-01	-2.10262E-01	1.91335E+00	-5.15346E+00
1.38452E-02	-2.14615E-01	1.91237E+00	-5.12709E+00
-7.86222E-02	-1.62264E-01	1.91142E+00	-5.10098E+00
-1.22193E-01	-7.98923E-02	1.91050E+00	-5.07513E+00
-1.13643E-01	4.47117E-04	1.90956E+00	-5.04953E+00
-6.72186E-02	5.24708E-02	1.90864E+00	-5.02414E+00
-7.64536E-03	6.36059E-02	1.90775E+00	-4.99898E+00
3.95666E-02	3.74654E-02	1.90688E+00	-4.97406E+00
5.69775E-02	-9.45368E-03	1.90604E+00	-4.94938E+00
4.02919E-02	-5.50770E-02	1.90520E+00	-4.92494E+00
-1.63987E-03	-8.01536E-02	1.90436E+00	-4.90072E+00
-5.13646E-02	-7.47491E-02	1.90352E+00	-4.87672E+00
-8.98595E-02	-4.08014E-02	1.90268E+00	-4.85292E+00
-1.03331E-01	9.69898E-03	1.90185E+00	-4.82932E+00
-8.75022E-02	5.98045E-02	1.90105E+00	-4.80591E+00
-4.81664E-02	9.38557E-02	1.90027E+00	-4.78272E+00
1.76399E-03	1.02603E-01	1.89950E+00	-4.75972E+00
4.72548E-02	8.55589E-02	1.89875E+00	-4.73694E+00
7.62702E-02	5.01379E-02	1.89801E+00	-4.71435E+00
8.32289E-02	8.26266E-03	1.89727E+00	-4.69196E+00
6.98251E-02	-2.80370E-02	1.89655E+00	-4.66976E+00
4.33371E-02	-5.04075E-02	1.89583E+00	-4.64775E+00
1.33625E-02	-5.61127E-02	1.89513E+00	-4.62592E+00
-1.16367E-02	-4.77677E-02	1.89443E+00	-4.60428E+00
-2.67211E-02	-3.13317E-02	1.89374E+00	-4.58282E+00
-3.11705E-02	-1.34002E-02	1.89307E+00	-4.56153E+00
-2.75523E-02	1.09450E-03	1.89240E+00	-4.54042E+00
-1.98530E-02	1.00082E-02	1.89174E+00	-4.51949E+00
-1.15970E-02	1.37510E-02	1.89109E+00	-4.49873E+00
-4.71501E-03	1.41133E-02	1.89044E+00	-4.47814E+00
5.32884E-04	1.28667E-02	1.88981E+00	-4.45770E+00
4.78217E-03	1.08376E-02	1.88919E+00	-4.43744E+00
8.51220E-03	7.82133E-03	1.88858E+00	-4.41734E+00
1.13385E-02	3.23862E-03	1.88798E+00	-4.39740E+00
1.20379E-02	-2.92926E-03	1.88738E+00	-4.37762E+00
9.28116E-03	-9.51126E-03	1.88679E+00	-4.35800E+00
2.66748E-03	-1.42440E-02	1.88621E+00	-4.33853E+00
-6.52390E-03	-1.46338E-02	1.88563E+00	-4.31921E+00
-1.53478E-02	-9.22051E-03	1.88507E+00	-4.30004E+00
-2.00980E-02	1.36152E-03	1.88451E+00	-4.28103E+00
-1.78148E-02	1.41017E-02	1.88397E+00	-4.26217E+00
-7.76696E-03	2.43806E-02	1.88342E+00	-4.24346E+00
7.77321E-03	2.76023E-02	1.88286E+00	-4.22488E+00
2.39208E-02	2.10973E-02	1.88232E+00	-4.20644E+00
3.47048E-02	5.51563E-03	1.88179E+00	-4.18812E+00
3.52656E-02	-1.49331E-02	1.88128E+00	-4.16996E+00
2.38808E-02	-3.36298E-02	1.88078E+00	-4.15194E+00
2.99963E-03	-4.37705E-02	1.88027E+00	-4.13406E+00
-2.12226E-02	-4.08941E-02	1.87975E+00	-4.11631E+00
-4.08409E-02	-2.47591E-02	1.87924E+00	-4.09867E+00
-4.88739E-02	2.00141E-04	1.87874E+00	-4.08116E+00
-4.19132E-02	2.61348E-02	1.87827E+00	-4.06378E+00
-2.15914E-02	4.43645E-02	1.87780E+00	-4.04653E+00
5.69482E-03	4.84539E-02	1.87733E+00	-4.02942E+00
3.08196E-02	3.66344E-02	1.87686E+00	-4.01243E+00
4.50565E-02	1.26627E-02	1.87639E+00	-3.99555E+00
4.32127E-02	-1.52771E-02	1.87593E+00	-3.97880E+00
2.56280E-02	-3.73127E-02	1.87548E+00	-3.96216E+00
-1.74167E-03	-4.53480E-02	1.87503E+00	-3.94563E+00
-2.92325E-02	-3.60017E-02	1.87459E+00	-3.92923E+00
-4.67866E-02	-1.19861E-02	1.87416E+00	-3.91294E+00
-4.75071E-02	1.86501E-02	1.87374E+00	-3.89677E+00
-3.02014E-02	4.51928E-02	1.87332E+00	-3.88071E+00
2.15948E-05	5.79494E-02	1.87290E+00	-3.86476E+00
3.33528E-02	5.16708E-02	1.87249E+00	-3.84892E+00
5.85820E-02	2.74877E-02	1.87208E+00	-3.83319E+00
6.69194E-02	-7.33190E-03	1.87168E+00	-3.81757E+00
5.50684E-02	-4.17671E-02	1.87129E+00	-3.80205E+00
2.64201E-02	-6.47554E-02	1.87090E+00	-3.78664E+00
-1.00465E-02	-6.89510E-02	1.87052E+00	-3.77134E+00
-4.27938E-02	-5.32213E-02	1.87014E+00	-3.75614E+00
-6.16368E-02	-2.30108E-02	1.86976E+00	-3.74105E+00
-6.11826E-02	1.15537E-02	1.86938E+00	-3.72606E+00
-4.25999E-02	3.91745E-02	1.86901E+00	-3.71117E+00
-1.31146E-02	5.12371E-02	1.86864E+00	-3.69638E+00
1.65789E-02	4.47328E-02	1.86826E+00	-3.68168E+00
3.60832E-02	2.31901E-02	1.86790E+00	-3.66707E+00
3.89157E-02	-4.67334E-03	1.86754E+00	-3.65255E+00
2.47217E-02	-2.80921E-02	1.86719E+00	-3.63814E+00
-6.74290E-04	-3.80783E-02	1.86684E+00	-3.62382E+00
-2.73906E-02	-3.05914E-02	1.86649E+00	-3.60959E+00
-4.49937E-02	-7.94716E-03	1.86614E+00	-3.59546E+00
-4.61939E-02	2.19941E-02	1.86579E+00	-3.58141E+00
-2.94182E-02	4.85740E-02	1.86545E+00	-3.56744E+00
6.12543E-04	6.20387E-02	1.86511E+00	-3.55356E+00
3.44807E-02	5.69104E-02	1.86478E+00	-3.53977E+00
6.12693E-02	3.38736E-02	1.86446E+00	-3.52606E+00
7.22535E-02	-4.70039E-04	1.86414E+00	-3.51245E+00
6.37832E-02	-3.58221E-02	1.86382E+00	-3.49893E+00
3.84388E-02	-6.16421E-02	1.86349E+00	-3.48548E+00
4.06158E-03	-7.06054E-02	1.86318E+00	-3.47210E+00
-2.89457E-02	-6.09049E-02	1.86288E+00	-3.45881E+00
-5.10943E-02	-3.66472E-02	1.86259E+00	-3.44560E+00
-5.68638E-02	-6.26533E-03	1.86230E+00	-3.43249E+00
-4.63181E-02	2.04513E-02	1.86201E+00	-3.41947E+00
-2.47812E-02	3.56703E-02	1.86170E+00	-3.40653E+00
-7.63816E-04	3.60019E-02	1.86139E+00	-3.39364E+00
1.70972E-02	2.33956E-02	1.86109E+00	-3.38081E+00
2.30035E-02	4.16568E-03	1.86082E+00	-3.36807E+00
1.58544E-02	-1.34320E-02	1.86057E+00	-3.35542E+00
-5.88978E-04	-2.21878E-02	1.86030E+00	-3.34286E+00
-1.92270E-02	-1.84462E-02	1.86002E+00	-3.33038E+00
-3.22493E-02	-3.28687E-03	1.85973E+00	-3.31796E+00
