jMRUI Data Textfile
 
Filename: Pyr.txt
 
PointsInDataset: 2048
DatasetsInFile: 1
SamplingInterval: 5.00000E-01
ZeroOrderPhase: 0E0
BeginTime: 0E0
TransmitterFrequency: 1.27740E+08
MagneticField: 0E0
TypeOfNucleus: 0E0
NameOfPatient: 
DateOfExperiment: 
Spectrometer: Vespa-Simulation
AdditionalInfo: see 'readme' file for Vespa-Simulation output synopsis
 
  
Signal and FFT 
sig(real)	sig(imag)	fft(real)	fft(imag)
Signal 1 out of 1 in file
3.00000E+00	5.20417E-18	1.54012E+00	-2.95453E+00
1.75131E+00	-2.39524E+00	1.53989E+00	-2.94329E+00
-8.90024E-01	-2.79653E+00	1.53968E+00	-2.93214E+00
-2.75235E+00	-9.21926E-01	1.53947E+00	-2.92107E+00
-2.34282E+00	1.65932E+00	1.53925E+00	-2.91008E+00
-4.28480E-02	2.83919E+00	1.53904E+00	-2.89915E+00
2.24184E+00	1.69165E+00	1.53882E+00	-2.88829E+00
2.65934E+00	-8.02378E-01	1.53862E+00	-2.87749E+00
9.11816E-01	-2.59166E+00	1.53841E+00	-2.86678E+00
-1.53691E+00	-2.24094E+00	1.53819E+00	-2.85613E+00
-2.68640E+00	-8.11026E-02	1.53796E+00	-2.84553E+00
-1.63299E+00	2.09751E+00	1.53773E+00	-2.83499E+00
7.21387E-01	2.52826E+00	1.53751E+00	-2.82452E+00
2.43972E+00	8.99957E-01	1.53728E+00	-2.81410E+00
2.14277E+00	-1.42253E+00	1.53705E+00	-2.80374E+00
1.15124E-01	-2.54124E+00	1.53683E+00	-2.79343E+00
-1.96176E+00	-1.57541E+00	1.53660E+00	-2.78318E+00
-2.40304E+00	6.46618E-01	1.53635E+00	-2.77298E+00
-8.86572E-01	2.29609E+00	1.53613E+00	-2.76279E+00
1.31567E+00	2.04824E+00	1.53595E+00	-2.75266E+00
2.40338E+00	1.45249E-01	1.53582E+00	-2.74263E+00
1.51899E+00	-1.83410E+00	1.53566E+00	-2.73270E+00
-5.77627E-01	-2.28347E+00	1.53546E+00	-2.72286E+00
-2.16035E+00	-8.71836E-01	1.53522E+00	-2.71304E+00
-1.95723E+00	1.21590E+00	1.53497E+00	-2.70321E+00
-1.71782E-01	2.27248E+00	1.53477E+00	-2.69342E+00
1.71410E+00	1.46376E+00	1.53462E+00	-2.68370E+00
2.16932E+00	-5.14060E-01	1.53446E+00	-2.67409E+00
8.55952E-01	-2.03211E+00	1.53427E+00	-2.66454E+00
-1.12277E+00	-1.86969E+00	1.53406E+00	-2.65502E+00
-2.14822E+00	-1.95039E-01	1.53384E+00	-2.64554E+00
-1.40979E+00	1.60131E+00	1.53362E+00	-2.63609E+00
4.55529E-01	2.06038E+00	1.53342E+00	-2.62667E+00
1.91095E+00	8.39103E-01	1.53325E+00	-2.61729E+00
1.78550E+00	-1.03590E+00	1.53310E+00	-2.60797E+00
2.15260E-01	-2.03029E+00	1.53296E+00	-2.59873E+00
-1.49534E+00	-1.35710E+00	1.53281E+00	-2.58955E+00
-1.95645E+00	4.01677E-01	1.53266E+00	-2.58043E+00
-8.21426E-01	1.79654E+00	1.53249E+00	-2.57136E+00
9.54866E-01	1.70459E+00	1.53232E+00	-2.56232E+00
1.91839E+00	2.32726E-01	1.53215E+00	-2.55333E+00
1.30570E+00	-1.39581E+00	1.53199E+00	-2.54436E+00
-3.52196E-01	-1.85732E+00	1.53186E+00	-2.53545E+00
-1.68852E+00	-8.03036E-01	1.53172E+00	-2.52661E+00
-1.62686E+00	8.79331E-01	1.53158E+00	-2.51783E+00
-2.47631E-01	1.81224E+00	1.53142E+00	-2.50910E+00
1.30234E+00	1.25565E+00	1.53126E+00	-2.50040E+00
1.76280E+00	-3.06784E-01	1.53110E+00	-2.49174E+00
7.84115E-01	-1.58654E+00	1.53094E+00	-2.48311E+00
-8.08955E-01	-1.55222E+00	1.53079E+00	-2.47453E+00
-1.71156E+00	-2.60248E-01	1.53065E+00	-2.46599E+00
-1.20695E+00	1.21460E+00	1.53052E+00	-2.45752E+00
2.65181E-01	1.67269E+00	1.53039E+00	-2.44910E+00
1.49029E+00	7.64751E-01	1.53023E+00	-2.44073E+00
1.48057E+00	-7.43441E-01	1.53007E+00	-2.43241E+00
2.70750E-01	-1.61610E+00	1.52987E+00	-2.42412E+00
-1.13227E+00	-1.15959E+00	1.52966E+00	-2.41585E+00
-1.58682E+00	2.27070E-01	1.52945E+00	-2.40759E+00
-7.45049E-01	1.39948E+00	1.52927E+00	-2.39935E+00
6.82439E-01	1.41183E+00	1.52911E+00	-2.39115E+00
1.52561E+00	2.79325E-01	1.52895E+00	-2.38299E+00
1.11361E+00	-1.05501E+00	1.52881E+00	-2.37487E+00
-1.92229E-01	-1.50500E+00	1.52867E+00	-2.36679E+00
-1.31384E+00	-7.25087E-01	1.52854E+00	-2.35875E+00
-1.34589E+00	6.25710E-01	1.52843E+00	-2.35076E+00
-2.86148E-01	1.43984E+00	1.52832E+00	-2.34281E+00
9.82550E-01	1.06899E+00	1.52822E+00	-2.33492E+00
1.42708E+00	-1.60446E-01	1.52811E+00	-2.32709E+00
7.04972E-01	-1.23306E+00	1.52797E+00	-2.31930E+00
-5.72924E-01	-1.28270E+00	1.52781E+00	-2.31153E+00
-1.35858E+00	-2.91359E-01	1.52765E+00	-2.30376E+00
-1.02571E+00	9.14627E-01	1.52752E+00	-2.29601E+00
1.31438E-01	1.35288E+00	1.52744E+00	-2.28830E+00
1.15689E+00	6.84818E-01	1.52736E+00	-2.28068E+00
1.22212E+00	-5.23908E-01	1.52727E+00	-2.27311E+00
2.95131E-01	-1.28160E+00	1.52716E+00	-2.26560E+00
-8.50933E-01	-9.83814E-01	1.52702E+00	-2.25812E+00
-1.28224E+00	1.05085E-01	1.52686E+00	-2.25067E+00
-6.64621E-01	1.08510E+00	1.52668E+00	-2.24322E+00
4.78384E-01	1.16409E+00	1.52651E+00	-2.23579E+00
1.20868E+00	2.97640E-01	1.52635E+00	-2.22838E+00
9.43224E-01	-7.91281E-01	1.52619E+00	-2.22098E+00
-8.11520E-02	-1.21501E+00	1.52606E+00	-2.21361E+00
-1.01744E+00	-6.44514E-01	1.52594E+00	-2.20628E+00
-1.10853E+00	4.36094E-01	1.52583E+00	-2.19899E+00
-2.98936E-01	1.13965E+00	1.52572E+00	-2.19174E+00
7.35405E-01	9.03959E-01	1.52562E+00	-2.18451E+00
1.15104E+00	-5.94267E-02	1.52552E+00	-2.17732E+00
6.24488E-01	-9.53701E-01	1.52545E+00	-2.17016E+00
-3.96898E-01	-1.05534E+00	1.52537E+00	-2.16306E+00
-1.07429E+00	-2.99177E-01	1.52529E+00	-2.15601E+00
-8.66022E-01	6.83059E-01	1.52521E+00	-2.14899E+00
3.98138E-02	1.09019E+00	1.52512E+00	-2.14201E+00
8.93669E-01	6.04626E-01	1.52500E+00	-2.13507E+00
1.00445E+00	-3.60531E-01	1.52487E+00	-2.12814E+00
2.98504E-01	-1.01243E+00	1.52475E+00	-2.12123E+00
-6.34086E-01	-8.29350E-01	1.52463E+00	-2.11435E+00
-1.03232E+00	2.21206E-02	1.52450E+00	-2.10749E+00
-5.84997E-01	8.37120E-01	1.52438E+00	-2.10065E+00
3.26871E-01	9.55751E-01	1.52428E+00	-2.09383E+00
9.53903E-01	2.96953E-01	1.52419E+00	-2.08705E+00
7.93946E-01	-5.88262E-01	1.52408E+00	-2.08032E+00
-6.17200E-03	-9.77305E-01	1.52397E+00	-2.07359E+00
-7.83900E-01	-5.65587E-01	1.52388E+00	-2.06688E+00
-9.09186E-01	2.95710E-01	1.52380E+00	-2.06022E+00
-2.94677E-01	8.98525E-01	1.52373E+00	-2.05359E+00
5.45376E-01	7.59801E-01	1.52365E+00	-2.04701E+00
9.25008E-01	8.10682E-03	1.52356E+00	-2.04046E+00
5.46458E-01	-7.33810E-01	1.52347E+00	-2.03394E+00
-2.66857E-01	-8.64681E-01	1.52335E+00	-2.02745E+00
-8.46157E-01	-2.91706E-01	1.52324E+00	-2.02097E+00
-7.26858E-01	5.05299E-01	1.52313E+00	-2.01450E+00
-2.08739E-02	8.75311E-01	1.52303E+00	-2.00806E+00
6.86661E-01	5.27661E-01	1.52292E+00	-2.00166E+00
8.22141E-01	-2.40213E-01	1.52280E+00	-1.99527E+00
2.88146E-01	-7.96639E-01	1.52269E+00	-1.98890E+00
-4.67819E-01	-6.95123E-01	1.52259E+00	-1.98254E+00
-8.28094E-01	-3.22725E-02	1.52250E+00	-1.97621E+00
-5.09178E-01	6.42325E-01	1.52242E+00	-1.96990E+00
2.15603E-01	7.81501E-01	1.52235E+00	-1.96362E+00
7.49817E-01	2.84093E-01	1.52230E+00	-1.95739E+00
6.64540E-01	-4.32823E-01	1.52222E+00	-1.95121E+00
4.23611E-02	-7.83246E-01	1.52213E+00	-1.94503E+00
-6.00628E-01	-4.91052E-01	1.52205E+00	-1.93886E+00
-7.42695E-01	1.92871E-01	1.52199E+00	-1.93273E+00
-2.79567E-01	7.05571E-01	1.52193E+00	-1.92666E+00
4.00139E-01	6.35097E-01	1.52182E+00	-1.92060E+00
7.40658E-01	5.12689E-02	1.52172E+00	-1.91454E+00
4.73303E-01	-5.61425E-01	1.52164E+00	-1.90850E+00
-1.71911E-01	-7.05643E-01	1.52155E+00	-1.90252E+00
-6.63753E-01	-2.74672E-01	1.52142E+00	-1.89653E+00
-6.06777E-01	3.69608E-01	1.52132E+00	-1.89052E+00
-5.91127E-02	7.00225E-01	1.52127E+00	-1.88456E+00
5.24563E-01	4.55962E-01	1.52119E+00	-1.87867E+00
6.70268E-01	-1.52646E-01	1.52107E+00	-1.87276E+00
2.69403E-01	-6.24263E-01	1.52101E+00	-1.86681E+00
-3.41154E-01	-5.79517E-01	1.52100E+00	-1.86098E+00
-6.61846E-01	-6.59578E-02	1.52090E+00	-1.85520E+00
-4.39023E-01	4.89925E-01	1.52079E+00	-1.84935E+00
1.34879E-01	6.36524E-01	1.52077E+00	-1.84354E+00
5.86949E-01	2.63890E-01	1.52072E+00	-1.83783E+00
5.53333E-01	-3.14580E-01	1.52062E+00	-1.83212E+00
7.18492E-02	-6.25431E-01	1.52053E+00	-1.82638E+00
-4.57411E-01	-4.22469E-01	1.52048E+00	-1.82070E+00
-6.04334E-01	1.18546E-01	1.52039E+00	-1.81506E+00
-2.58138E-01	5.51713E-01	1.52027E+00	-1.80941E+00
2.89805E-01	5.28172E-01	1.52017E+00	-1.80376E+00
5.90879E-01	7.69420E-02	1.52010E+00	-1.79813E+00
4.06365E-01	-4.26852E-01	1.52001E+00	-1.79255E+00
-1.03584E-01	-5.73629E-01	1.51990E+00	-1.78696E+00
-5.18464E-01	-2.52160E-01	1.51981E+00	-1.78136E+00
-5.04005E-01	2.66718E-01	1.51976E+00	-1.77579E+00
-8.12677E-02	5.58106E-01	1.51970E+00	-1.77027E+00
3.98160E-01	3.90687E-01	1.51963E+00	-1.76477E+00
5.44363E-01	-8.98289E-02	1.51957E+00	-1.75926E+00
2.46058E-01	-4.87067E-01	1.51954E+00	-1.75378E+00
-2.45243E-01	-4.80789E-01	1.51952E+00	-1.74836E+00
-5.27034E-01	-8.48608E-02	1.51949E+00	-1.74298E+00
-3.75417E-01	3.71254E-01	1.51944E+00	-1.73763E+00
7.72291E-02	5.16469E-01	1.51936E+00	-1.73231E+00
4.57441E-01	2.39834E-01	1.51925E+00	-1.72701E+00
4.58525E-01	-2.25222E-01	1.51910E+00	-1.72168E+00
8.78491E-02	-4.97570E-01	1.51897E+00	-1.71632E+00
-3.45985E-01	-3.60603E-01	1.51888E+00	-1.71095E+00
-4.89885E-01	6.57335E-02	1.51881E+00	-1.70561E+00
-2.33494E-01	4.29505E-01	1.51878E+00	-1.70030E+00
2.06592E-01	4.37168E-01	1.51875E+00	-1.69503E+00
4.69643E-01	9.02558E-02	1.51873E+00	-1.68980E+00
3.46222E-01	-3.22283E-01	1.51869E+00	-1.68461E+00
-5.52043E-02	-4.64566E-01	1.51864E+00	-1.67943E+00
-4.03144E-01	-2.27121E-01	1.51860E+00	-1.67426E+00
-4.16678E-01	1.89292E-01	1.51855E+00	-1.66912E+00
-9.21071E-02	4.43184E-01	1.51850E+00	-1.66401E+00
3.00057E-01	3.32273E-01	1.51843E+00	-1.65891E+00
4.40454E-01	-4.56017E-02	1.51836E+00	-1.65383E+00
2.20712E-01	-3.78287E-01	1.51828E+00	-1.64876E+00
-1.73187E-01	-3.97050E-01	1.51820E+00	-1.64370E+00
-4.18111E-01	-9.35078E-02	1.51811E+00	-1.63866E+00
-3.18736E-01	2.79241E-01	1.51802E+00	-1.63361E+00
3.68839E-02	4.17495E-01	1.51793E+00	-1.62857E+00
3.54866E-01	2.14269E-01	1.51787E+00	-1.62354E+00
3.78244E-01	-1.58226E-01	1.51781E+00	-1.61853E+00
9.44749E-02	-3.94363E-01	1.51776E+00	-1.61354E+00
-2.59715E-01	-3.05645E-01	1.51772E+00	-1.60858E+00
-3.95644E-01	2.89364E-02	1.51767E+00	-1.60363E+00
-2.07859E-01	3.32781E-01	1.51763E+00	-1.59871E+00
1.44357E-01	3.60223E-01	1.51758E+00	-1.59381E+00
3.71879E-01	9.50279E-02	1.51753E+00	-1.58892E+00
2.92976E-01	-2.41423E-01	1.51750E+00	-1.58406E+00
-2.17274E-02	-3.74850E-01	1.51744E+00	-1.57923E+00
-3.11971E-01	-2.01476E-01	1.51738E+00	-1.57441E+00
