jMRUI Data Textfile
 
Filename: Cr.txt
 
PointsInDataset: 2048
DatasetsInFile: 1
SamplingInterval: 5.00000E-01
ZeroOrderPhase: 0E0
BeginTime: 0E0
TransmitterFrequency: 1.27740E+08
MagneticField: 0E0
TypeOfNucleus: 0E0
NameOfPatient: 
DateOfExperiment: 
Spectrometer: Vespa-Simulation
AdditionalInfo: see 'readme' file for Vespa-Simulation output synopsis
 
  
Signal and FFT 
sig(real)	sig(imag)	fft(real)	fft(imag)
Signal 1 out of 1 in file
6.00000E+00	-1.19696E-16	3.31691E+00	-9.35769E+00
4.90513E+00	-1.76313E+00	3.31220E+00	-9.27004E+00
2.24876E+00	-3.03583E+00	3.30765E+00	-9.18371E+00
-7.93069E-01	-3.50241E+00	3.30322E+00	-9.09867E+00
-2.95513E+00	-3.07608E+00	3.29891E+00	-9.01488E+00
-3.46981E+00	-1.94451E+00	3.29469E+00	-8.93229E+00
-2.38946E+00	-5.34183E-01	3.29058E+00	-8.85088E+00
-5.01484E-01	6.22736E-01	3.28655E+00	-8.77059E+00
1.10111E+00	1.09208E+00	3.28260E+00	-8.69139E+00
1.56683E+00	7.35399E-01	3.27875E+00	-8.61324E+00
6.79811E-01	-1.96745E-01	3.27502E+00	-8.53611E+00
-1.07797E+00	-1.14449E+00	3.27140E+00	-8.46000E+00
-2.80201E+00	-1.48272E+00	3.26789E+00	-8.38489E+00
-3.62092E+00	-8.30938E-01	3.26447E+00	-8.31078E+00
-3.10175E+00	7.21004E-01	3.26109E+00	-8.23763E+00
-1.41911E+00	2.59870E+00	3.25776E+00	-8.16535E+00
7.67575E-01	3.97294E+00	3.25453E+00	-8.09392E+00
2.64107E+00	4.14147E+00	3.25143E+00	-8.02334E+00
3.58540E+00	2.88286E+00	3.24845E+00	-7.95364E+00
3.41193E+00	6.00733E-01	3.24556E+00	-7.88480E+00
2.37182E+00	-1.82829E+00	3.24274E+00	-7.81682E+00
9.84095E-01	-3.44465E+00	3.23996E+00	-7.74966E+00
-2.14495E-01	-3.65071E+00	3.23719E+00	-7.68327E+00
-8.77133E-01	-2.49174E+00	3.23446E+00	-7.61760E+00
-9.35971E-01	-6.30072E-01	3.23181E+00	-7.55263E+00
-5.65159E-01	9.80194E-01	3.22923E+00	-7.48837E+00
-6.49632E-02	1.55972E+00	3.22674E+00	-7.42481E+00
2.68677E-01	8.81255E-01	3.22431E+00	-7.36194E+00
2.41877E-01	-6.28923E-01	3.22193E+00	-7.29975E+00
-1.88885E-01	-2.11357E+00	3.21960E+00	-7.23821E+00
-9.12711E-01	-2.71741E+00	3.21731E+00	-7.17731E+00
-1.69474E+00	-2.01312E+00	3.21506E+00	-7.11701E+00
-2.23767E+00	-2.10738E-01	3.21288E+00	-7.05729E+00
-2.27169E+00	1.94740E+00	3.21077E+00	-6.99813E+00
-1.65835E+00	3.54631E+00	3.20876E+00	-6.93956E+00
-4.73374E-01	3.92910E+00	3.20683E+00	-6.88159E+00
9.77091E-01	2.98913E+00	3.20496E+00	-6.82423E+00
2.23684E+00	1.18983E+00	3.20311E+00	-6.76745E+00
2.86577E+00	-6.81097E-01	3.20125E+00	-6.71123E+00
2.63084E+00	-1.89009E+00	3.19938E+00	-6.65551E+00
1.63168E+00	-2.07967E+00	3.19753E+00	-6.60025E+00
2.86677E-01	-1.38837E+00	3.19572E+00	-6.54543E+00
-8.33995E-01	-3.29817E-01	3.19399E+00	-6.49107E+00
-1.26466E+00	4.87888E-01	3.19233E+00	-6.43719E+00
-8.70010E-01	6.54985E-01	3.19071E+00	-6.38381E+00
7.58982E-02	1.27477E-01	3.18910E+00	-6.33088E+00
1.00950E+00	-7.93462E-01	3.18749E+00	-6.27839E+00
1.34999E+00	-1.63648E+00	3.18589E+00	-6.22627E+00
7.95210E-01	-1.98909E+00	3.18434E+00	-6.17450E+00
-5.07579E-01	-1.67029E+00	3.18290E+00	-6.12310E+00
-2.00929E+00	-7.79927E-01	3.18158E+00	-6.07210E+00
-3.01028E+00	3.75024E-01	3.18037E+00	-6.02155E+00
-2.99714E+00	1.42333E+00	3.17922E+00	-5.97149E+00
-1.89877E+00	2.06915E+00	3.17807E+00	-5.92193E+00
-1.32661E-01	2.17662E+00	3.17682E+00	-5.87281E+00
1.58468E+00	1.78310E+00	3.17544E+00	-5.82401E+00
2.57203E+00	1.05826E+00	3.17398E+00	-5.77543E+00
2.49802E+00	2.37794E-01	3.17255E+00	-5.72702E+00
1.52319E+00	-4.45349E-01	3.17127E+00	-5.67883E+00
2.03051E-01	-8.20346E-01	3.17014E+00	-5.63098E+00
-7.94503E-01	-8.23767E-01	3.16906E+00	-5.58349E+00
-1.01433E+00	-5.22190E-01	3.16799E+00	-5.53630E+00
-4.21718E-01	-9.87023E-02	3.16703E+00	-5.48934E+00
6.03294E-01	2.06009E-01	3.16622E+00	-5.44273E+00
1.47269E+00	1.89185E-01	3.16549E+00	-5.39655E+00
1.68780E+00	-2.14599E-01	3.16470E+00	-5.35079E+00
1.07848E+00	-8.78656E-01	3.16380E+00	-5.30535E+00
-1.27852E-01	-1.51214E+00	3.16278E+00	-5.26013E+00
-1.42964E+00	-1.77550E+00	3.16172E+00	-5.21505E+00
-2.29510E+00	-1.44032E+00	3.16068E+00	-5.17010E+00
-2.40279E+00	-5.18958E-01	3.15973E+00	-5.12530E+00
-1.76600E+00	7.06689E-01	3.15890E+00	-5.08071E+00
-6.95503E-01	1.78617E+00	3.15816E+00	-5.03637E+00
3.66204E-01	2.29484E+00	3.15747E+00	-4.99230E+00
1.04778E+00	2.03274E+00	3.15679E+00	-4.94848E+00
1.19350E+00	1.12926E+00	3.15613E+00	-4.90489E+00
8.92675E-01	-5.79462E-03	3.15546E+00	-4.86150E+00
3.98921E-01	-8.69176E-01	3.15482E+00	-4.81831E+00
-6.51368E-03	-1.10198E+00	3.15417E+00	-4.77531E+00
-1.37808E-01	-6.62373E-01	3.15354E+00	-4.73248E+00
3.56824E-02	1.55254E-01	3.15292E+00	-4.68981E+00
4.04369E-01	8.67323E-01	3.15232E+00	-4.64729E+00
7.84697E-01	1.04345E+00	3.15173E+00	-4.60494E+00
9.98278E-01	5.24266E-01	3.15115E+00	-4.56272E+00
9.32530E-01	-4.94492E-01	3.15059E+00	-4.52063E+00
5.68915E-01	-1.55359E+00	3.15006E+00	-4.47866E+00
-1.80493E-02	-2.15236E+00	3.14957E+00	-4.43680E+00
-6.82658E-01	-1.99047E+00	3.14913E+00	-4.39507E+00
-1.24458E+00	-1.11052E+00	3.14872E+00	-4.35347E+00
-1.53611E+00	1.26164E-01	3.14835E+00	-4.31200E+00
-1.45546E+00	1.21467E+00	3.14800E+00	-4.27066E+00
-1.01082E+00	1.74293E+00	3.14765E+00	-4.22943E+00
-3.34312E-01	1.57354E+00	3.14732E+00	-4.18828E+00
3.50540E-01	8.86358E-01	3.14702E+00	-4.14722E+00
8.07645E-01	7.00619E-02	3.14674E+00	-4.10624E+00
8.86614E-01	-4.76285E-01	3.14651E+00	-4.06535E+00
5.96454E-01	-5.30374E-01	3.14628E+00	-4.02456E+00
1.13664E-01	-1.34729E-01	3.14605E+00	-3.98383E+00
-2.89952E-01	4.48051E-01	3.14584E+00	-3.94315E+00
-3.74022E-01	8.79853E-01	3.14565E+00	-3.90252E+00
-5.29675E-02	9.13696E-01	3.14549E+00	-3.86193E+00
5.47486E-01	5.02242E-01	3.14535E+00	-3.82138E+00
1.13617E+00	-1.96155E-01	3.14524E+00	-3.78087E+00
1.39026E+00	-9.05049E-01	3.14514E+00	-3.74039E+00
1.11548E+00	-1.35940E+00	3.14505E+00	-3.69993E+00
3.53517E-01	-1.41388E+00	3.14498E+00	-3.65946E+00
-6.21584E-01	-1.08547E+00	3.14495E+00	-3.61897E+00
-1.42133E+00	-5.22996E-01	3.14500E+00	-3.57850E+00
-1.72190E+00	6.98096E-02	3.14507E+00	-3.53808E+00
-1.41703E+00	5.16857E-01	3.14514E+00	-3.49767E+00
-6.68607E-01	7.24228E-01	3.14519E+00	-3.45724E+00
1.71399E-01	6.92839E-01	3.14524E+00	-3.41674E+00
7.30102E-01	4.97406E-01	3.14534E+00	-3.37617E+00
7.90746E-01	2.48601E-01	3.14552E+00	-3.33557E+00
3.90645E-01	5.45524E-02	3.14573E+00	-3.29497E+00
-2.06947E-01	-9.58267E-03	3.14595E+00	-3.25434E+00
-6.50507E-01	7.79023E-02	3.14616E+00	-3.21365E+00
-6.77234E-01	2.76878E-01	3.14640E+00	-3.17287E+00
-2.41235E-01	4.92915E-01	3.14666E+00	-3.13200E+00
4.68313E-01	6.05159E-01	3.14696E+00	-3.09105E+00
1.12400E+00	5.11978E-01	3.14730E+00	-3.04999E+00
1.42042E+00	1.80465E-01	3.14769E+00	-3.00885E+00
1.21727E+00	-3.22537E-01	3.14812E+00	-2.96762E+00
5.97807E-01	-8.39321E-01	3.14856E+00	-2.92630E+00
-1.80360E-01	-1.17562E+00	3.14902E+00	-2.88487E+00
-8.11799E-01	-1.18294E+00	3.14948E+00	-2.84329E+00
-1.08142E+00	-8.32535E-01	3.14998E+00	-2.80155E+00
-9.49324E-01	-2.42411E-01	3.15052E+00	-2.75966E+00
-5.47724E-01	3.63047E-01	3.15111E+00	-2.71761E+00
-1.00780E-01	7.48433E-01	3.15175E+00	-2.67541E+00
1.87134E-01	7.75600E-01	3.15242E+00	-2.63306E+00
2.19102E-01	4.71491E-01	3.15309E+00	-2.59052E+00
3.31524E-02	1.90184E-02	3.15380E+00	-2.54777E+00
-2.34650E-01	-3.29422E-01	3.15456E+00	-2.50480E+00
-4.24929E-01	-3.76056E-01	3.15537E+00	-2.46163E+00
-4.28233E-01	-7.86489E-02	3.15622E+00	-2.41825E+00
-2.25175E-01	4.23540E-01	3.15712E+00	-2.37464E+00
1.17212E-01	8.74243E-01	3.15804E+00	-2.33080E+00
4.82537E-01	1.02518E+00	3.15900E+00	-2.28671E+00
7.52871E-01	7.60156E-01	3.15998E+00	-2.24235E+00
8.47636E-01	1.56415E-01	3.16099E+00	-2.19769E+00
7.42701E-01	-5.48025E-01	3.16205E+00	-2.15274E+00
4.70274E-01	-1.06534E+00	3.16315E+00	-2.10749E+00
1.05609E-01	-1.19247E+00	3.16427E+00	-2.06190E+00
-2.53683E-01	-9.03369E-01	3.16544E+00	-2.01596E+00
-5.12894E-01	-3.54853E-01	3.16667E+00	-1.96966E+00
-6.06558E-01	1.94312E-01	3.16796E+00	-1.92297E+00
-5.21528E-01	5.09139E-01	3.16932E+00	-1.87590E+00
-3.06589E-01	4.86380E-01	3.17074E+00	-1.82843E+00
-6.02142E-02	1.93546E-01	3.17226E+00	-1.78054E+00
1.05113E-01	-1.76078E-01	3.17386E+00	-1.73224E+00
1.11383E-01	-4.05759E-01	3.17554E+00	-1.68352E+00
-4.47065E-02	-3.62131E-01	3.17729E+00	-1.63439E+00
-2.81500E-01	-5.47296E-02	3.17909E+00	-1.58480E+00
-4.63102E-01	3.76611E-01	3.18093E+00	-1.53474E+00
-4.61667E-01	7.35087E-01	3.18280E+00	-1.48417E+00
-2.23783E-01	8.61234E-01	3.18471E+00	-1.43303E+00
1.92741E-01	7.02181E-01	3.18669E+00	-1.38128E+00
6.34053E-01	3.26273E-01	3.18879E+00	-1.32891E+00
9.15065E-01	-1.17631E-01	3.19103E+00	-1.27595E+00
9.05551E-01	-4.71355E-01	3.19338E+00	-1.22242E+00
5.95706E-01	-6.32633E-01	3.19580E+00	-1.16829E+00
1.07092E-01	-5.87275E-01	3.19828E+00	-1.11349E+00
-3.59683E-01	-3.99258E-01	3.20081E+00	-1.05798E+00
-6.17196E-01	-1.70823E-01	3.20342E+00	-1.00170E+00
-5.78992E-01	4.67698E-03	3.20616E+00	-9.44612E-01
-2.99383E-01	7.62131E-02	3.20905E+00	-8.86721E-01
5.52070E-02	4.48900E-02	3.21211E+00	-8.28033E-01
2.89551E-01	-4.76255E-02	3.21532E+00	-7.68549E-01
2.76570E-01	-1.41397E-01	3.21863E+00	-7.08244E-01
1.96976E-02	-1.81021E-01	3.22202E+00	-6.47060E-01
-3.49997E-01	-1.32508E-01	3.22547E+00	-5.84911E-01
-6.39787E-01	7.32290E-03	3.22900E+00	-5.21700E-01
-6.90875E-01	2.08601E-01	3.23268E+00	-4.57352E-01
-4.55928E-01	4.14042E-01	3.23660E+00	-3.91861E-01
-2.10972E-02	5.53163E-01	3.24078E+00	-3.25272E-01
4.36647E-01	5.65129E-01	3.24514E+00	-2.57573E-01
7.33931E-01	4.24084E-01	3.24967E+00	-1.88644E-01
7.64781E-01	1.56723E-01	3.25444E+00	-1.18423E-01
5.43836E-01	-1.58886E-01	3.25949E+00	-4.69408E-02
1.90863E-01	-4.17882E-01	3.26476E+00	2.58137E-02
-1.32106E-01	-5.30007E-01	3.27017E+00	9.99330E-02
-2.97900E-01	-4.60570E-01	3.27572E+00	1.75541E-01
-2.67759E-01	-2.50476E-01	3.28144E+00	2.52755E-01
-9.88425E-02	-2.34345E-03	3.28736E+00	3.31686E-01
9.35628E-02	1.64563E-01	3.29358E+00	4.12422E-01
1.96538E-01	1.71075E-01	3.30015E+00	4.95007E-01
1.52010E-01	1.89240E-02	3.30710E+00	5.79468E-01
-2.20592E-02	-2.06359E-01	3.31441E+00	6.65858E-01
-2.47574E-01	-3.74645E-01	3.32208E+00	7.54275E-01
-4.26897E-01	-3.75165E-01	3.33012E+00	8.44828E-01
