jMRUI Data Textfile
 
Filename: GABA.txt
 
PointsInDataset: 2048
DatasetsInFile: 1
SamplingInterval: 5.00000E-01
ZeroOrderPhase: 0E0
BeginTime: 0E0
TransmitterFrequency: 1.27740E+08
MagneticField: 0E0
TypeOfNucleus: 0E0
NameOfPatient: 
DateOfExperiment: 
Spectrometer: Vespa-Simulation
AdditionalInfo: see 'readme' file for Vespa-Simulation output synopsis
 
  
Signal and FFT 
sig(real)	sig(imag)	fft(real)	fft(imag)
Signal 1 out of 1 in file
3.75420E+00	-2.04303E-01	1.76982E+00	-4.09976E+00
2.05065E+00	-3.00052E+00	1.76990E+00	-4.08308E+00
-1.07372E+00	-3.22207E+00	1.76998E+00	-4.06654E+00
-2.90651E+00	-9.66074E-01	1.77005E+00	-4.05013E+00
-2.16332E+00	1.54100E+00	1.77011E+00	-4.03385E+00
1.73237E-02	2.20185E+00	1.77015E+00	-4.01767E+00
1.46023E+00	9.29858E-01	1.77018E+00	-4.00159E+00
1.12587E+00	-6.14980E-01	1.77022E+00	-3.98559E+00
-1.27437E-01	-9.08791E-01	1.77029E+00	-3.96969E+00
-7.36557E-01	-9.89233E-03	1.77039E+00	-3.95390E+00
-1.24687E-01	7.87913E-01	1.77051E+00	-3.93824E+00
8.60699E-01	4.85119E-01	1.77062E+00	-3.92271E+00
1.01722E+00	-6.13119E-01	1.77073E+00	-3.90731E+00
7.67640E-02	-1.34378E+00	1.77080E+00	-3.89201E+00
-1.10127E+00	-9.37547E-01	1.77087E+00	-3.87679E+00
-1.46195E+00	2.71898E-01	1.77094E+00	-3.86164E+00
-7.39172E-01	1.27571E+00	1.77105E+00	-3.84659E+00
4.34134E-01	1.35165E+00	1.77117E+00	-3.83164E+00
1.20391E+00	5.82224E-01	1.77131E+00	-3.81681E+00
1.17534E+00	-4.05380E-01	1.77144E+00	-3.80210E+00
5.33847E-01	-1.02184E+00	1.77155E+00	-3.78749E+00
-2.73883E-01	-1.04240E+00	1.77166E+00	-3.77297E+00
-8.54366E-01	-5.62528E-01	1.77175E+00	-3.75852E+00
-9.73128E-01	1.54313E-01	1.77186E+00	-3.74415E+00
-5.81191E-01	7.58526E-01	1.77199E+00	-3.72987E+00
1.22362E-01	9.14202E-01	1.77215E+00	-3.71569E+00
7.12020E-01	5.09699E-01	1.77230E+00	-3.70163E+00
7.88590E-01	-1.81109E-01	1.77245E+00	-3.68767E+00
3.23032E-01	-6.44168E-01	1.77257E+00	-3.67379E+00
-2.70045E-01	-5.49565E-01	1.77269E+00	-3.65999E+00
-4.86998E-01	-6.37955E-02	1.77281E+00	-3.64627E+00
-2.11314E-01	3.05583E-01	1.77293E+00	-3.63261E+00
1.81909E-01	2.18079E-01	1.77308E+00	-3.61902E+00
2.28455E-01	-1.55742E-01	1.77326E+00	-3.60553E+00
-1.24976E-01	-3.28374E-01	1.77344E+00	-3.59216E+00
-4.58104E-01	-3.40088E-02	1.77361E+00	-3.57888E+00
-3.30280E-01	4.61729E-01	1.77376E+00	-3.56569E+00
2.27051E-01	6.21310E-01	1.77389E+00	-3.55257E+00
7.05747E-01	2.00153E-01	1.77402E+00	-3.53951E+00
6.20066E-01	-4.74026E-01	1.77416E+00	-3.52651E+00
-1.80272E-03	-8.01218E-01	1.77432E+00	-3.51357E+00
-6.32540E-01	-4.84044E-01	1.77451E+00	-3.50073E+00
-7.42761E-01	1.97263E-01	1.77471E+00	-3.48799E+00
-2.80023E-01	6.63889E-01	1.77489E+00	-3.47536E+00
3.22752E-01	5.71792E-01	1.77503E+00	-3.46281E+00
5.75443E-01	8.16564E-02	1.77515E+00	-3.45030E+00
3.54598E-01	-3.51146E-01	1.77526E+00	-3.43784E+00
-5.81357E-02	-4.10605E-01	1.77539E+00	-3.42541E+00
-2.94456E-01	-1.54492E-01	1.77556E+00	-3.41302E+00
-2.26207E-01	1.21012E-01	1.77579E+00	-3.40073E+00
-1.08741E-02	1.90280E-01	1.77604E+00	-3.38857E+00
1.20160E-01	6.93423E-02	1.77626E+00	-3.37650E+00
8.10704E-02	-6.74794E-02	1.77647E+00	-3.36452E+00
-3.64709E-02	-8.55257E-02	1.77666E+00	-3.35263E+00
-9.53600E-02	3.30502E-03	1.77681E+00	-3.34081E+00
-4.63579E-02	9.21083E-02	1.77692E+00	-3.32903E+00
5.30004E-02	9.67317E-02	1.77702E+00	-3.31727E+00
1.13579E-01	1.93907E-02	1.77715E+00	-3.30553E+00
9.12182E-02	-7.49564E-02	1.77731E+00	-3.29384E+00
6.35524E-03	-1.19455E-01	1.77748E+00	-3.28222E+00
-8.33656E-02	-8.72202E-02	1.77769E+00	-3.27065E+00
-1.21552E-01	6.96482E-04	1.77795E+00	-3.25917E+00
-8.28668E-02	8.99813E-02	1.77823E+00	-3.24780E+00
1.10458E-02	1.22195E-01	1.77849E+00	-3.23655E+00
9.88921E-02	7.19507E-02	1.77870E+00	-3.22538E+00
1.17354E-01	-2.88832E-02	1.77888E+00	-3.21427E+00
5.04182E-02	-1.06968E-01	1.77902E+00	-3.20321E+00
-5.15016E-02	-1.02327E-01	1.77913E+00	-3.19217E+00
-1.08158E-01	-1.98675E-02	1.77925E+00	-3.18113E+00
-7.63049E-02	7.17895E-02	1.77940E+00	-3.17012E+00
1.30011E-02	9.83753E-02	1.77961E+00	-3.15916E+00
8.27603E-02	4.36485E-02	1.77985E+00	-3.14830E+00
7.83013E-02	-3.98794E-02	1.78009E+00	-3.13752E+00
1.19121E-02	-8.12767E-02	1.78033E+00	-3.12683E+00
-5.48552E-02	-5.30475E-02	1.78053E+00	-3.11621E+00
-6.92762E-02	1.18050E-02	1.78071E+00	-3.10563E+00
-2.94336E-02	5.68217E-02	1.78088E+00	-3.09508E+00
2.39796E-02	5.22563E-02	1.78107E+00	-3.08458E+00
4.93230E-02	1.26318E-02	1.78127E+00	-3.07412E+00
3.62292E-02	-2.57915E-02	1.78148E+00	-3.06373E+00
4.02252E-03	-3.82393E-02	1.78169E+00	-3.05340E+00
-2.18814E-02	-2.48979E-02	1.78190E+00	-3.04313E+00
-2.87836E-02	-1.16246E-03	1.78210E+00	-3.03292E+00
-1.84342E-02	1.77025E-02	1.78229E+00	-3.02275E+00
3.58011E-04	2.33703E-02	1.78248E+00	-3.01263E+00
1.69367E-02	1.42402E-02	1.78267E+00	-3.00254E+00
2.12620E-02	-4.41348E-03	1.78287E+00	-2.99251E+00
8.95326E-03	-2.02393E-02	1.78308E+00	-2.98253E+00
-1.25322E-02	-1.98068E-02	1.78329E+00	-2.97261E+00
-2.56419E-02	-4.18026E-04	1.78350E+00	-2.96274E+00
-1.62616E-02	2.35428E-02	1.78371E+00	-2.95292E+00
1.13542E-02	2.99843E-02	1.78391E+00	-2.94315E+00
3.44501E-02	9.13049E-03	1.78411E+00	-2.93342E+00
3.03745E-02	-2.44362E-02	1.78431E+00	-2.92373E+00
-1.47409E-03	-4.17416E-02	1.78453E+00	-2.91409E+00
-3.58703E-02	-2.50044E-02	1.78475E+00	-2.90450E+00
-4.23687E-02	1.41715E-02	1.78496E+00	-2.89497E+00
-1.33216E-02	4.25164E-02	1.78517E+00	-2.88549E+00
2.67714E-02	3.42376E-02	1.78538E+00	-2.87606E+00
4.15546E-02	-3.98372E-03	1.78556E+00	-2.86667E+00
1.65137E-02	-3.65531E-02	1.78574E+00	-2.85730E+00
-2.48914E-02	-3.08944E-02	1.78594E+00	-2.84797E+00
-4.05163E-02	9.93373E-03	1.78615E+00	-2.83867E+00
-9.81247E-03	4.59767E-02	1.78638E+00	-2.82943E+00
4.20734E-02	3.60218E-02	1.78660E+00	-2.82025E+00
6.28377E-02	-2.02034E-02	1.78682E+00	-2.81112E+00
2.19006E-02	-7.47082E-02	1.78704E+00	-2.80203E+00
-5.49058E-02	-7.12499E-02	1.78725E+00	-2.79300E+00
-1.01409E-01	4.09387E-04	1.78744E+00	-2.78399E+00
-6.87881E-02	8.76454E-02	1.78763E+00	-2.77502E+00
2.64115E-02	1.16285E-01	1.78784E+00	-2.76607E+00
1.10892E-01	5.61171E-02	1.78805E+00	-2.75717E+00
1.15960E-01	-4.93636E-02	1.78827E+00	-2.74832E+00
3.72185E-02	-1.18433E-01	1.78848E+00	-2.73951E+00
-6.21840E-02	-1.00810E-01	1.78870E+00	-2.73073E+00
-1.07407E-01	-1.81945E-02	1.78893E+00	-2.72202E+00
-7.48187E-02	5.98205E-02	1.78913E+00	-2.71334E+00
-5.12774E-03	7.91984E-02	1.78932E+00	-2.70469E+00
4.09909E-02	4.40297E-02	1.78953E+00	-2.69606E+00
3.88026E-02	1.81513E-03	1.78975E+00	-2.68748E+00
1.42450E-02	-8.54391E-03	1.78996E+00	-2.67895E+00
8.47950E-03	7.13485E-03	1.79017E+00	-2.67044E+00
3.17667E-02	1.10155E-02	1.79040E+00	-2.66199E+00
5.27085E-02	-2.20228E-02	1.79062E+00	-2.65358E+00
3.12893E-02	-7.35949E-02	1.79081E+00	-2.64521E+00
-3.78028E-02	-9.44493E-02	1.79101E+00	-2.63685E+00
-1.12287E-01	-4.82667E-02	1.79123E+00	-2.62852E+00
-1.31433E-01	5.20795E-02	1.79144E+00	-2.62025E+00
-6.36241E-02	1.45934E-01	1.79164E+00	-2.61201E+00
6.37797E-02	1.63691E-01	1.79186E+00	-2.60379E+00
1.74525E-01	7.67847E-02	1.79209E+00	-2.59563E+00
1.89743E-01	-7.45178E-02	1.79229E+00	-2.58751E+00
8.40378E-02	-1.97539E-01	1.79248E+00	-2.57941E+00
-8.64162E-02	-2.04883E-01	1.79269E+00	-2.57133E+00
-2.11327E-01	-8.00848E-02	1.79291E+00	-2.56329E+00
-2.01619E-01	9.88747E-02	1.79312E+00	-2.55529E+00
-6.15101E-02	2.08192E-01	1.79333E+00	-2.54732E+00
1.06074E-01	1.72797E-01	1.79355E+00	-2.53937E+00
1.78380E-01	3.06534E-02	1.79378E+00	-2.53148E+00
1.16270E-01	-9.72654E-02	1.79399E+00	-2.52364E+00
-2.57766E-03	-1.14798E-01	1.79419E+00	-2.51582E+00
-6.04703E-02	-3.88584E-02	1.79439E+00	-2.50802E+00
-1.85079E-02	2.25488E-02	1.79459E+00	-2.50026E+00
4.30654E-02	-1.12603E-02	1.79477E+00	-2.49252E+00
1.37113E-02	-9.78624E-02	1.79496E+00	-2.48479E+00
-1.13933E-01	-1.07603E-01	1.79517E+00	-2.47709E+00
-2.11300E-01	3.18646E-02	1.79540E+00	-2.46942E+00
-1.35119E-01	2.30259E-01	1.79563E+00	-2.46180E+00
1.08564E-01	2.94733E-01	1.79586E+00	-2.45422E+00
3.32867E-01	1.16832E-01	1.79610E+00	-2.44668E+00
3.26637E-01	-1.96281E-01	1.79632E+00	-2.43919E+00
6.01897E-02	-3.92860E-01	1.79651E+00	-2.43173E+00
-2.65863E-01	-2.99990E-01	1.79669E+00	-2.42428E+00
-3.90625E-01	1.21700E-02	1.79687E+00	-2.41684E+00
-2.26269E-01	2.89592E-01	1.79707E+00	-2.40942E+00
7.00261E-02	3.24239E-01	1.79726E+00	-2.40203E+00
2.52307E-01	1.32195E-01	1.79747E+00	-2.39466E+00
2.11452E-01	-8.75113E-02	1.79769E+00	-2.38732E+00
4.96407E-02	-1.58560E-01	1.79792E+00	-2.38003E+00
-5.40407E-02	-8.35721E-02	1.79814E+00	-2.37277E+00
-3.18223E-02	-2.86548E-03	1.79836E+00	-2.36555E+00
2.66342E-02	-2.07105E-02	1.79857E+00	-2.35835E+00
1.38094E-03	-9.44006E-02	1.79879E+00	-2.35118E+00
-1.10627E-01	-9.78524E-02	1.79899E+00	-2.34405E+00
-1.90026E-01	2.39373E-02	1.79919E+00	-2.33693E+00
-1.28153E-01	1.84378E-01	1.79938E+00	-2.32983E+00
5.29083E-02	2.40446E-01	1.79959E+00	-2.32276E+00
2.19277E-01	1.33974E-01	1.79979E+00	-2.31572E+00
2.51468E-01	-5.97546E-02	1.79999E+00	-2.30870E+00
1.40311E-01	-2.11287E-01	1.80020E+00	-2.30170E+00
-3.19293E-02	-2.44583E-01	1.80041E+00	-2.29473E+00
-1.76110E-01	-1.66747E-01	1.80062E+00	-2.28780E+00
-2.44521E-01	-2.29582E-02	1.80083E+00	-2.28089E+00
-2.15897E-01	1.40589E-01	1.80103E+00	-2.27400E+00
-8.03263E-02	2.65003E-01	1.80124E+00	-2.26713E+00
1.28229E-01	2.70338E-01	1.80145E+00	-2.26030E+00
2.99816E-01	1.10727E-01	1.80166E+00	-2.25348E+00
3.00151E-01	-1.45718E-01	1.80187E+00	-2.24669E+00
9.55300E-02	-3.24036E-01	1.80209E+00	-2.23994E+00
-1.77495E-01	-2.77837E-01	1.80231E+00	-2.23322E+00
-3.05572E-01	-3.82595E-02	1.80251E+00	-2.22653E+00
-1.93783E-01	1.91579E-01	1.80269E+00	-2.21986E+00
3.42335E-02	2.21938E-01	1.80287E+00	-2.21320E+00
1.54686E-01	6.44006E-02	1.80305E+00	-2.20654E+00
7.42843E-02	-8.23314E-02	1.80324E+00	-2.19989E+00
-7.15263E-02	-4.96789E-02	1.80346E+00	-2.19326E+00
-7.14296E-02	1.08491E-01	1.80370E+00	-2.18667E+00
1.12793E-01	1.67684E-01	1.80395E+00	-2.18014E+00
2.78374E-01	-1.07993E-02	1.80418E+00	-2.17365E+00
1.89870E-01	-2.94733E-01	1.80438E+00	-2.16719E+00
-1.46252E-01	-3.86488E-01	1.80456E+00	-2.16075E+00
