jMRUI Data Textfile
 
Filename: Glc.txt
 
PointsInDataset: 2048
DatasetsInFile: 1
SamplingInterval: 5.00000E-01
ZeroOrderPhase: 0E0
BeginTime: 0E0
TransmitterFrequency: 1.27740E+08
MagneticField: 0E0
TypeOfNucleus: 0E0
NameOfPatient: 
DateOfExperiment: 
Spectrometer: Vespa-Simulation
AdditionalInfo: see 'readme' file for Vespa-Simulation output synopsis
 
  
Signal and FFT 
sig(real)	sig(imag)	fft(real)	fft(imag)
Signal 1 out of 1 in file
6.59710E+00	-5.38599E-02	2.24944E+01	-3.23807E+01
5.86414E+00	-2.68817E+00	1.91128E+01	-3.20891E+01
4.01639E+00	-4.64808E+00	1.64539E+01	-3.13658E+01
1.52736E+00	-5.50078E+00	1.43672E+01	-3.04571E+01
-9.90392E-01	-5.10453E+00	1.27207E+01	-2.94920E+01
-2.94849E+00	-3.63238E+00	1.14090E+01	-2.85386E+01
-3.93219E+00	-1.51145E+00	1.03490E+01	-2.76296E+01
-3.79598E+00	7.01683E-01	9.47858E+00	-2.67747E+01
-2.68249E+00	2.47235E+00	8.75560E+00	-2.59740E+01
-9.63859E-01	3.42331E+00	8.15133E+00	-2.52257E+01
8.73182E-01	3.41868E+00	7.64364E+00	-2.45296E+01
2.36350E+00	2.57721E+00	7.21308E+00	-2.38844E+01
3.18246E+00	1.21684E+00	6.84274E+00	-2.32866E+01
3.21657E+00	-2.49007E-01	6.52045E+00	-2.27301E+01
2.57083E+00	-1.43075E+00	6.23824E+00	-2.22103E+01
1.51656E+00	-2.06380E+00	5.98955E+00	-2.17239E+01
3.99505E-01	-2.06556E+00	5.76819E+00	-2.12678E+01
-4.62559E-01	-1.53685E+00	5.56921E+00	-2.08381E+01
-8.63777E-01	-7.13173E-01	5.38932E+00	-2.04310E+01
-7.54333E-01	1.15795E-01	5.22645E+00	-2.00435E+01
-2.36858E-01	6.92884E-01	5.07961E+00	-1.96729E+01
4.78714E-01	8.61837E-01	4.94858E+00	-1.93178E+01
1.14506E+00	6.00636E-01	4.83276E+00	-1.89780E+01
1.55030E+00	1.44658E-02	4.73102E+00	-1.86535E+01
1.57356E+00	-7.05336E-01	4.64275E+00	-1.83443E+01
1.21027E+00	-1.34146E+00	4.56616E+00	-1.80521E+01
5.63770E-01	-1.71172E+00	4.49724E+00	-1.77772E+01
-1.90761E-01	-1.71483E+00	4.43248E+00	-1.75172E+01
-8.57406E-01	-1.35068E+00	4.37047E+00	-1.72691E+01
-1.27094E+00	-7.12918E-01	4.31081E+00	-1.70305E+01
-1.33563E+00	4.10268E-02	4.25379E+00	-1.67988E+01
-1.04338E+00	7.32467E-01	4.20163E+00	-1.65722E+01
-4.69500E-01	1.20490E+00	4.15673E+00	-1.63523E+01
2.50176E-01	1.35816E+00	4.11841E+00	-1.61415E+01
9.53641E-01	1.16691E+00	4.08421E+00	-1.59406E+01
1.48933E+00	6.81197E-01	4.05234E+00	-1.57486E+01
1.74762E+00	1.12345E-02	4.02206E+00	-1.55641E+01
1.68098E+00	-6.98879E-01	3.99315E+00	-1.53863E+01
1.31054E+00	-1.30216E+00	3.96555E+00	-1.52143E+01
7.18649E-01	-1.67858E+00	3.93926E+00	-1.50478E+01
3.01647E-02	-1.75798E+00	3.91425E+00	-1.48864E+01
-6.13945E-01	-1.53265E+00	3.89049E+00	-1.47296E+01
-1.08522E+00	-1.05748E+00	3.86794E+00	-1.45773E+01
-1.29383E+00	-4.37735E-01	3.84654E+00	-1.44291E+01
-1.20666E+00	1.93092E-01	3.82624E+00	-1.42850E+01
-8.54083E-01	7.01648E-01	3.80698E+00	-1.41447E+01
-3.23385E-01	9.83266E-01	3.78870E+00	-1.40080E+01
2.60346E-01	9.85092E-01	3.77133E+00	-1.38748E+01
7.62162E-01	7.18019E-01	3.75483E+00	-1.37449E+01
1.06810E+00	2.54454E-01	3.73914E+00	-1.36181E+01
1.11195E+00	-2.88506E-01	3.72421E+00	-1.34943E+01
8.91080E-01	-7.76821E-01	3.71001E+00	-1.33735E+01
4.67068E-01	-1.09213E+00	3.69648E+00	-1.32554E+01
-4.95249E-02	-1.16086E+00	3.68359E+00	-1.31399E+01
-5.27126E-01	-9.72530E-01	3.67129E+00	-1.30271E+01
-8.46599E-01	-5.82105E-01	3.65955E+00	-1.29166E+01
-9.31917E-01	-9.53089E-02	3.64834E+00	-1.28085E+01
-7.69503E-01	3.59289E-01	3.63762E+00	-1.27027E+01
-4.11177E-01	6.64430E-01	3.62736E+00	-1.25991E+01
4.04353E-02	7.45126E-01	3.61754E+00	-1.24975E+01
4.60019E-01	5.88182E-01	3.60813E+00	-1.23980E+01
7.33769E-01	2.44858E-01	3.59913E+00	-1.23004E+01
7.90035E-01	-1.84017E-01	3.59051E+00	-1.22047E+01
6.18220E-01	-5.76413E-01	3.58224E+00	-1.21108E+01
2.70636E-01	-8.22822E-01	3.57430E+00	-1.20187E+01
-1.52946E-01	-8.56177E-01	3.56667E+00	-1.19282E+01
-5.33722E-01	-6.69547E-01	3.55933E+00	-1.18394E+01
-7.66832E-01	-3.16924E-01	3.55227E+00	-1.17522E+01
-7.90119E-01	1.02807E-01	3.54550E+00	-1.16665E+01
-6.00422E-01	4.73999E-01	3.53898E+00	-1.15822E+01
-2.53229E-01	6.96498E-01	3.53271E+00	-1.14995E+01
1.53744E-01	7.12740E-01	3.52667E+00	-1.14181E+01
5.08251E-01	5.22702E-01	3.52084E+00	-1.13380E+01
7.14564E-01	1.82555E-01	3.51521E+00	-1.12593E+01
7.19030E-01	-2.11891E-01	3.50978E+00	-1.11818E+01
5.23631E-01	-5.52145E-01	3.50454E+00	-1.11055E+01
1.83990E-01	-7.46597E-01	3.49951E+00	-1.10305E+01
-2.07111E-01	-7.44628E-01	3.49466E+00	-1.09566E+01
-5.45458E-01	-5.48818E-01	3.48998E+00	-1.08838E+01
-7.43433E-01	-2.12606E-01	3.48546E+00	-1.08122E+01
-7.52494E-01	1.75513E-01	3.48108E+00	-1.07417E+01
-5.74410E-01	5.16509E-01	3.47682E+00	-1.06721E+01
-2.58794E-01	7.26851E-01	3.47267E+00	-1.06036E+01
1.11735E-01	7.59492E-01	3.46865E+00	-1.05361E+01
4.44368E-01	6.14239E-01	3.46476E+00	-1.04695E+01
6.60198E-01	3.35474E-01	3.46102E+00	-1.04038E+01
7.13606E-01	-1.47510E-03	3.45742E+00	-1.03390E+01
6.01912E-01	-3.11129E-01	3.45395E+00	-1.02751E+01
3.63448E-01	-5.20083E-01	3.45060E+00	-1.02122E+01
6.53519E-02	-5.84589E-01	3.44735E+00	-1.01501E+01
-2.15199E-01	-4.99626E-01	3.44418E+00	-1.00888E+01
-4.11013E-01	-2.97459E-01	3.44107E+00	-1.00283E+01
-4.81025E-01	-3.68224E-02	3.43803E+00	-9.96867E+00
-4.18567E-01	2.13713E-01	3.43507E+00	-9.90974E+00
-2.50461E-01	3.93707E-01	3.43220E+00	-9.85154E+00
-2.76244E-02	4.65416E-01	3.42942E+00	-9.79406E+00
1.89604E-01	4.21449E-01	3.42672E+00	-9.73730E+00
3.47454E-01	2.84262E-01	3.42411E+00	-9.68125E+00
4.11797E-01	9.81242E-02	3.42157E+00	-9.62588E+00
3.75283E-01	-8.38435E-02	3.41911E+00	-9.57117E+00
2.57141E-01	-2.13780E-01	3.41671E+00	-9.51712E+00
9.63491E-02	-2.60906E-01	3.41439E+00	-9.46370E+00
-5.96839E-02	-2.18135E-01	3.41216E+00	-9.41091E+00
-1.67758E-01	-1.02266E-01	3.41001E+00	-9.35877E+00
-1.99519E-01	5.17961E-02	3.40790E+00	-9.30727E+00
-1.47746E-01	2.00932E-01	3.40583E+00	-9.25638E+00
-2.69405E-02	3.05102E-01	3.40376E+00	-9.20608E+00
1.31426E-01	3.37097E-01	3.40172E+00	-9.15632E+00
2.87524E-01	2.88614E-01	3.39971E+00	-9.10708E+00
4.03257E-01	1.71366E-01	3.39776E+00	-9.05834E+00
4.51368E-01	1.32955E-02	3.39588E+00	-9.01012E+00
4.21387E-01	-1.48747E-01	3.39407E+00	-8.96242E+00
3.21356E-01	-2.78073E-01	3.39231E+00	-8.91523E+00
1.75147E-01	-3.46634E-01	3.39062E+00	-8.86853E+00
1.62548E-02	-3.41072E-01	3.38901E+00	-8.82234E+00
-1.20174E-01	-2.65046E-01	3.38746E+00	-8.77668E+00
-2.05329E-01	-1.37662E-01	3.38594E+00	-8.73155E+00
-2.22872E-01	1.15331E-02	3.38442E+00	-8.68690E+00
-1.71932E-01	1.49567E-01	3.38289E+00	-8.64272E+00
-6.65843E-02	2.47512E-01	3.38136E+00	-8.59897E+00
6.79854E-02	2.86694E-01	3.37985E+00	-8.55563E+00
2.01645E-01	2.62345E-01	3.37836E+00	-8.51268E+00
3.06262E-01	1.84000E-01	3.37694E+00	-8.47013E+00
3.62007E-01	7.26701E-02	3.37557E+00	-8.42799E+00
3.61537E-01	-4.45076E-02	3.37427E+00	-8.38627E+00
3.11179E-01	-1.40937E-01	3.37301E+00	-8.34498E+00
2.28870E-01	-1.96869E-01	3.37177E+00	-8.30411E+00
1.39348E-01	-2.04073E-01	3.37055E+00	-8.26364E+00
6.76979E-02	-1.67593E-01	3.36935E+00	-8.22355E+00
3.28012E-02	-1.04198E-01	3.36816E+00	-8.18384E+00
4.22820E-02	-3.77877E-02	3.36699E+00	-8.14449E+00
9.03646E-02	7.16067E-03	3.36586E+00	-8.10550E+00
1.59186E-01	1.25131E-02	3.36476E+00	-8.06687E+00
2.23507E-01	-2.80429E-02	3.36369E+00	-8.02861E+00
2.57698E-01	-1.06507E-01	3.36262E+00	-7.99071E+00
2.43278E-01	-2.01932E-01	3.36156E+00	-7.95316E+00
1.74957E-01	-2.85541E-01	3.36050E+00	-7.91592E+00
6.34355E-02	-3.28455E-01	3.35946E+00	-7.87900E+00
-6.61861E-02	-3.10111E-01	3.35845E+00	-7.84239E+00
-1.80036E-01	-2.24999E-01	3.35747E+00	-7.80608E+00
-2.44221E-01	-8.58198E-02	3.35653E+00	-7.77009E+00
-2.34264E-01	7.82085E-02	3.35562E+00	-7.73441E+00
-1.42740E-01	2.27761E-01	3.35476E+00	-7.69905E+00
1.71617E-02	3.23110E-01	3.35391E+00	-7.66402E+00
2.13400E-01	3.34680E-01	3.35307E+00	-7.62930E+00
4.02168E-01	2.51551E-01	3.35223E+00	-7.59489E+00
5.38380E-01	8.55412E-02	3.35140E+00	-7.56076E+00
5.87260E-01	-1.30583E-01	3.35058E+00	-7.52691E+00
5.33636E-01	-3.50520E-01	3.34976E+00	-7.49333E+00
3.86438E-01	-5.25686E-01	3.34897E+00	-7.46003E+00
1.76981E-01	-6.17388E-01	3.34819E+00	-7.42700E+00
-4.86032E-02	-6.06629E-01	3.34741E+00	-7.39424E+00
-2.41048E-01	-4.98850E-01	3.34664E+00	-7.36173E+00
-3.60139E-01	-3.22264E-01	3.34588E+00	-7.32947E+00
-3.84724E-01	-1.20256E-01	3.34516E+00	-7.29744E+00
-3.17359E-01	6.00965E-02	3.34446E+00	-7.26567E+00
-1.82574E-01	1.80159E-01	3.34380E+00	-7.23415E+00
-1.93341E-02	2.19184E-01	3.34317E+00	-7.20290E+00
1.30053E-01	1.78522E-01	3.34257E+00	-7.17191E+00
2.31373E-01	7.95935E-02	3.34197E+00	-7.14120E+00
2.67068E-01	-4.36187E-02	3.34136E+00	-7.11075E+00
2.39512E-01	-1.55032E-01	3.34072E+00	-7.08054E+00
1.68448E-01	-2.26909E-01	3.34005E+00	-7.05054E+00
8.35096E-02	-2.47109E-01	3.33938E+00	-7.02073E+00
1.43365E-02	-2.21201E-01	3.33874E+00	-6.99111E+00
-1.86253E-02	-1.69070E-01	3.33813E+00	-6.96170E+00
-9.88026E-03	-1.17329E-01	3.33756E+00	-6.93252E+00
3.03741E-02	-9.00713E-02	3.33699E+00	-6.90356E+00
8.05900E-02	-1.00924E-01	3.33643E+00	-6.87481E+00
1.15610E-01	-1.48807E-01	3.33590E+00	-6.84626E+00
1.15328E-01	-2.18603E-01	3.33540E+00	-6.81792E+00
7.14658E-02	-2.86345E-01	3.33492E+00	-6.78981E+00
-9.59186E-03	-3.27133E-01	3.33445E+00	-6.76193E+00
-1.08668E-01	-3.23222E-01	3.33396E+00	-6.73427E+00
-1.99729E-01	-2.69726E-01	3.33346E+00	-6.70681E+00
-2.57698E-01	-1.76286E-01	3.33295E+00	-6.67954E+00
-2.65993E-01	-6.42800E-02	3.33243E+00	-6.65244E+00
-2.21285E-01	3.94026E-02	3.33193E+00	-6.62551E+00
-1.34234E-01	1.10018E-01	3.33145E+00	-6.59875E+00
-2.61831E-02	1.31711E-01	3.33098E+00	-6.57218E+00
7.70329E-02	1.01403E-01	3.33054E+00	-6.54579E+00
1.52148E-01	2.88931E-02	3.33011E+00	-6.51959E+00
1.84325E-01	-6.66539E-02	3.32969E+00	-6.49357E+00
1.70159E-01	-1.62398E-01	3.32928E+00	-6.46773E+00
1.17339E-01	-2.37996E-01	3.32890E+00	-6.44208E+00
4.13238E-02	-2.80359E-01	3.32852E+00	-6.41662E+00
-3.96015E-02	-2.85829E-01	3.32813E+00	-6.39134E+00
-1.09285E-01	-2.59505E-01	3.32773E+00	-6.36624E+00
-1.57226E-01	-2.12346E-01	3.32732E+00	-6.34129E+00
-1.79947E-01	-1.57218E-01	3.32692E+00	-6.31650E+00
-1.80050E-01	-1.05353E-01	3.32652E+00	-6.29187E+00
