jMRUI Data Textfile
 
Filename: Glu.txt
 
PointsInDataset: 2048
DatasetsInFile: 1
SamplingInterval: 5.00000E-01
ZeroOrderPhase: 0E0
BeginTime: 0E0
TransmitterFrequency: 1.27740E+08
MagneticField: 0E0
TypeOfNucleus: 0E0
NameOfPatient: 
DateOfExperiment: 
Spectrometer: Vespa-Simulation
AdditionalInfo: see 'readme' file for Vespa-Simulation output synopsis
 
  
Signal and FFT 
sig(real)	sig(imag)	fft(real)	fft(imag)
Signal 1 out of 1 in file
3.89034E+00	-1.09411E-01	1.94236E+00	-4.78568E+00
2.26936E+00	-2.97547E+00	1.94133E+00	-4.76047E+00
-8.86476E-01	-3.29097E+00	1.94033E+00	-4.73555E+00
-2.79727E+00	-9.98610E-01	1.93935E+00	-4.71090E+00
-1.95078E+00	1.64826E+00	1.93840E+00	-4.68652E+00
5.92761E-01	2.23538E+00	1.93748E+00	-4.66241E+00
2.30310E+00	3.85754E-01	1.93659E+00	-4.63856E+00
1.56601E+00	-2.01268E+00	1.93573E+00	-4.61497E+00
-8.97631E-01	-2.65447E+00	1.93489E+00	-4.59162E+00
-2.81780E+00	-9.33314E-01	1.93408E+00	-4.56853E+00
-2.51141E+00	1.61291E+00	1.93329E+00	-4.54567E+00
-3.41196E-01	2.81423E+00	1.93253E+00	-4.52306E+00
1.76341E+00	1.82611E+00	1.93178E+00	-4.50069E+00
2.13047E+00	-2.57912E-01	1.93105E+00	-4.47855E+00
7.64352E-01	-1.55923E+00	1.93034E+00	-4.45662E+00
-8.57828E-01	-1.13048E+00	1.92965E+00	-4.43491E+00
-1.25340E+00	3.43343E-01	1.92898E+00	-4.41340E+00
-2.23059E-01	1.35612E+00	1.92833E+00	-4.39212E+00
1.14745E+00	1.00092E+00	1.92771E+00	-4.37104E+00
1.60162E+00	-3.24780E-01	1.92711E+00	-4.35017E+00
8.13256E-01	-1.44075E+00	1.92652E+00	-4.32951E+00
-4.76230E-01	-1.49491E+00	1.92594E+00	-4.30905E+00
-1.24504E+00	-6.13189E-01	1.92537E+00	-4.28878E+00
-1.06936E+00	3.83689E-01	1.92482E+00	-4.26869E+00
-3.33936E-01	7.78544E-01	1.92429E+00	-4.24878E+00
2.61420E-01	4.95261E-01	1.92378E+00	-4.22906E+00
3.28328E-01	-1.05520E-02	1.92330E+00	-4.20952E+00
5.59931E-04	-2.54855E-01	1.92282E+00	-4.19018E+00
-3.27457E-01	-1.02886E-01	1.92235E+00	-4.17101E+00
-3.78152E-01	2.44468E-01	1.92189E+00	-4.15201E+00
-1.44496E-01	5.09204E-01	1.92144E+00	-4.13317E+00
2.10143E-01	5.41062E-01	1.92100E+00	-4.11450E+00
5.09646E-01	3.39962E-01	1.92059E+00	-4.09598E+00
6.31439E-01	-1.07694E-02	1.92020E+00	-4.07763E+00
5.10247E-01	-3.78651E-01	1.91982E+00	-4.05945E+00
1.69547E-01	-5.93235E-01	1.91944E+00	-4.04144E+00
-2.32909E-01	-5.18924E-01	1.91907E+00	-4.02358E+00
-4.53265E-01	-1.82227E-01	1.91870E+00	-4.00586E+00
-3.38079E-01	1.83897E-01	1.91834E+00	-3.98829E+00
9.84278E-03	2.89338E-01	1.91800E+00	-3.97086E+00
2.70118E-01	4.34007E-02	1.91768E+00	-3.95358E+00
1.70087E-01	-3.24180E-01	1.91737E+00	-3.93644E+00
-2.45760E-01	-4.35647E-01	1.91708E+00	-3.91946E+00
-6.15034E-01	-1.10136E-01	1.91678E+00	-3.90262E+00
-5.65800E-01	4.37332E-01	1.91648E+00	-3.88591E+00
-6.82820E-02	7.55631E-01	1.91619E+00	-3.86934E+00
5.06407E-01	5.55760E-01	1.91590E+00	-3.85289E+00
6.98737E-01	-1.48208E-02	1.91563E+00	-3.83657E+00
3.70283E-01	-4.87823E-01	1.91536E+00	-3.82037E+00
-1.68329E-01	-4.86739E-01	1.91511E+00	-3.80430E+00
-4.36175E-01	-6.12814E-02	1.91487E+00	-3.78836E+00
-2.14633E-01	3.64960E-01	1.91464E+00	-3.77255E+00
2.62677E-01	3.84669E-01	1.91441E+00	-3.75686E+00
5.32972E-01	-2.54524E-02	1.91419E+00	-3.74129E+00
3.29067E-01	-4.93304E-01	1.91397E+00	-3.72584E+00
-1.84779E-01	-5.96856E-01	1.91376E+00	-3.71051E+00
-5.72299E-01	-2.42484E-01	1.91355E+00	-3.69528E+00
-5.20458E-01	2.65084E-01	1.91335E+00	-3.68018E+00
-1.05984E-01	5.08781E-01	1.91315E+00	-3.66518E+00
2.96599E-01	3.26850E-01	1.91296E+00	-3.65029E+00
3.60897E-01	-6.83667E-02	1.91277E+00	-3.63550E+00
8.53086E-02	-3.07279E-01	1.91260E+00	-3.62082E+00
-2.37390E-01	-1.98071E-01	1.91243E+00	-3.60625E+00
-3.04277E-01	1.24304E-01	1.91228E+00	-3.59178E+00
-6.78035E-02	3.48619E-01	1.91214E+00	-3.57742E+00
2.47903E-01	2.76494E-01	1.91199E+00	-3.56318E+00
3.68773E-01	-1.66511E-02	1.91185E+00	-3.54904E+00
2.11633E-01	-2.75126E-01	1.91170E+00	-3.53500E+00
-6.69167E-02	-3.00921E-01	1.91154E+00	-3.52104E+00
-2.32812E-01	-1.12871E-01	1.91139E+00	-3.50717E+00
-1.81026E-01	1.00009E-01	1.91126E+00	-3.49339E+00
-2.79085E-03	1.62672E-01	1.91114E+00	-3.47970E+00
1.23693E-01	5.79226E-02	1.91104E+00	-3.46611E+00
9.83974E-02	-8.70423E-02	1.91095E+00	-3.45262E+00
-3.00757E-02	-1.34328E-01	1.91085E+00	-3.43924E+00
-1.32890E-01	-5.44017E-02	1.91075E+00	-3.42596E+00
-1.25052E-01	6.88783E-02	1.91064E+00	-3.41275E+00
-2.85614E-02	1.30428E-01	1.91052E+00	-3.39963E+00
6.74762E-02	9.54843E-02	1.91042E+00	-3.38658E+00
9.45587E-02	1.25639E-02	1.91033E+00	-3.37361E+00
5.50680E-02	-4.61253E-02	1.91025E+00	-3.36073E+00
9.35123E-04	-4.90660E-02	1.91018E+00	-3.34794E+00
-2.31888E-02	-1.82925E-02	1.91011E+00	-3.33524E+00
-1.38016E-02	6.60826E-03	1.91003E+00	-3.32262E+00
3.66454E-03	8.05368E-03	1.90996E+00	-3.31009E+00
8.45126E-03	-2.85791E-03	1.90988E+00	-3.29762E+00
1.83143E-03	-8.49834E-03	1.90981E+00	-3.28523E+00
-3.40032E-03	-5.28243E-03	1.90976E+00	-3.27291E+00
-2.06070E-03	-2.15961E-03	1.90971E+00	-3.26068E+00
-1.04888E-03	-4.78343E-03	1.90966E+00	-3.24852E+00
-7.11009E-03	-7.07975E-03	1.90962E+00	-3.23645E+00
-1.53501E-02	2.38486E-04	1.90957E+00	-3.22446E+00
-1.32202E-02	1.57141E-02	1.90952E+00	-3.21254E+00
4.38116E-03	2.52066E-02	1.90947E+00	-3.20068E+00
2.62462E-02	1.54167E-02	1.90943E+00	-3.18890E+00
3.30385E-02	-1.10509E-02	1.90939E+00	-3.17718E+00
1.52983E-02	-3.51504E-02	1.90936E+00	-3.16553E+00
-1.62393E-02	-3.70175E-02	1.90933E+00	-3.15396E+00
-3.83390E-02	-1.35744E-02	1.90931E+00	-3.14246E+00
-3.44437E-02	1.79792E-02	1.90928E+00	-3.13104E+00
-8.53768E-03	3.40005E-02	1.90925E+00	-3.11967E+00
1.81029E-02	2.36976E-02	1.90922E+00	-3.10837E+00
2.43652E-02	-2.24089E-03	1.90919E+00	-3.09714E+00
6.50533E-03	-2.05657E-02	1.90916E+00	-3.08596E+00
-1.87466E-02	-1.45634E-02	1.90915E+00	-3.07484E+00
-2.76606E-02	1.19212E-02	1.90914E+00	-3.06380E+00
-9.05842E-03	3.68196E-02	1.90913E+00	-3.05282E+00
2.55205E-02	3.71713E-02	1.90912E+00	-3.04191E+00
4.96937E-02	8.23571E-03	1.90911E+00	-3.03106E+00
4.29061E-02	-3.10650E-02	1.90909E+00	-3.02028E+00
7.84934E-03	-5.18820E-02	1.90907E+00	-3.00954E+00
-3.01238E-02	-3.84772E-02	1.90907E+00	-2.99885E+00
-4.26213E-02	-1.97986E-03	1.90907E+00	-2.98823E+00
-2.17498E-02	2.76520E-02	1.90908E+00	-2.97767E+00
1.24024E-02	2.63013E-02	1.90908E+00	-2.96718E+00
2.81001E-02	-3.22419E-03	1.90908E+00	-2.95675E+00
9.52017E-03	-3.25204E-02	1.90908E+00	-2.94637E+00
-2.81761E-02	-3.17974E-02	1.90907E+00	-2.93604E+00
-5.06525E-02	3.12629E-03	1.90907E+00	-2.92576E+00
-3.43210E-02	4.51863E-02	1.90909E+00	-2.91553E+00
1.14877E-02	5.83548E-02	1.90911E+00	-2.90536E+00
5.07258E-02	2.94415E-02	1.90912E+00	-2.89525E+00
5.12813E-02	-1.88643E-02	1.90914E+00	-2.88520E+00
1.36696E-02	-4.65940E-02	1.90917E+00	-2.87520E+00
-2.84045E-02	-3.14817E-02	1.90918E+00	-2.86526E+00
-3.74216E-02	1.07221E-02	1.90919E+00	-2.85537E+00
-5.84298E-03	3.97114E-02	1.90921E+00	-2.84551E+00
3.63452E-02	2.68824E-02	1.90923E+00	-2.83572E+00
4.82323E-02	-1.79975E-02	1.90925E+00	-2.82598E+00
1.54900E-02	-5.45482E-02	1.90927E+00	-2.81628E+00
-3.53804E-02	-4.80077E-02	1.90930E+00	-2.80663E+00
-5.99160E-02	-1.46950E-03	1.90934E+00	-2.79704E+00
-3.58037E-02	4.56487E-02	1.90936E+00	-2.78751E+00
1.62087E-02	5.24786E-02	1.90937E+00	-2.77801E+00
5.02614E-02	1.36829E-02	1.90940E+00	-2.76855E+00
3.65075E-02	-3.53040E-02	1.90943E+00	-2.75915E+00
-1.18588E-02	-5.00346E-02	1.90945E+00	-2.74978E+00
-5.04725E-02	-1.71756E-02	1.90950E+00	-2.74045E+00
-4.39353E-02	3.35229E-02	1.90955E+00	-2.73120E+00
2.29002E-03	5.62380E-02	1.90959E+00	-2.72200E+00
4.70280E-02	3.04233E-02	1.90962E+00	-2.71284E+00
5.05880E-02	-2.09808E-02	1.90964E+00	-2.70371E+00
1.01050E-02	-5.24536E-02	1.90966E+00	-2.69463E+00
-3.84522E-02	-3.64488E-02	1.90968E+00	-2.68557E+00
-5.24798E-02	1.28187E-02	1.90972E+00	-2.67655E+00
-1.97616E-02	5.26557E-02	1.90978E+00	-2.66757E+00
3.19839E-02	4.91608E-02	1.90985E+00	-2.65866E+00
5.98528E-02	5.45291E-03	1.90991E+00	-2.64982E+00
4.19720E-02	-4.25080E-02	1.90995E+00	-2.64102E+00
-5.69056E-03	-5.69271E-02	1.90997E+00	-2.63224E+00
-4.42869E-02	-2.87253E-02	1.90999E+00	-2.62350E+00
-4.43536E-02	1.68797E-02	1.91002E+00	-2.61479E+00
-8.55639E-03	4.21819E-02	1.91006E+00	-2.60611E+00
3.18964E-02	2.71184E-02	1.91010E+00	-2.59746E+00
4.24912E-02	-1.56383E-02	1.91016E+00	-2.58887E+00
1.22211E-02	-5.09008E-02	1.91022E+00	-2.58031E+00
-3.76506E-02	-4.78728E-02	1.91028E+00	-2.57180E+00
-6.88135E-02	-3.99288E-03	1.91035E+00	-2.56333E+00
-5.43915E-02	5.14990E-02	1.91043E+00	-2.55492E+00
-5.24546E-04	7.77691E-02	1.91049E+00	-2.54656E+00
5.55917E-02	5.31877E-02	1.91052E+00	-2.53823E+00
7.21832E-02	-5.79838E-03	1.91054E+00	-2.52993E+00
3.61554E-02	-5.42087E-02	1.91056E+00	-2.52164E+00
-2.31928E-02	-5.28261E-02	1.91060E+00	-2.51337E+00
-5.45448E-02	-2.08450E-03	1.91066E+00	-2.50513E+00
-2.67404E-02	5.38240E-02	1.91075E+00	-2.49695E+00
4.10575E-02	6.08894E-02	1.91083E+00	-2.48882E+00
9.00856E-02	2.69000E-03	1.91090E+00	-2.48075E+00
6.98896E-02	-7.96376E-02	1.91096E+00	-2.47271E+00
-1.48712E-02	-1.16949E-01	1.91100E+00	-2.46469E+00
-1.01714E-01	-7.07913E-02	1.91104E+00	-2.45670E+00
-1.19661E-01	2.88367E-02	1.91109E+00	-2.44873E+00
-5.14436E-02	1.03587E-01	1.91115E+00	-2.44080E+00
4.69183E-02	9.23767E-02	1.91122E+00	-2.43291E+00
9.10788E-02	6.85162E-03	1.91128E+00	-2.42505E+00
4.22172E-02	-7.47574E-02	1.91134E+00	-2.41724E+00
-5.52632E-02	-7.45462E-02	1.91140E+00	-2.40945E+00
-1.09231E-01	1.41178E-02	1.91145E+00	-2.40170E+00
-6.09105E-02	1.16017E-01	1.91151E+00	-2.39397E+00
5.94255E-02	1.37141E-01	1.91157E+00	-2.38627E+00
1.54058E-01	4.82991E-02	1.91163E+00	-2.37861E+00
1.41102E-01	-8.51404E-02	1.91169E+00	-2.37098E+00
2.73556E-02	-1.56549E-01	1.91176E+00	-2.36338E+00
-9.47615E-02	-1.09732E-01	1.91182E+00	-2.35581E+00
-1.25853E-01	1.12032E-02	1.91188E+00	-2.34828E+00
-4.59622E-02	9.92172E-02	1.91194E+00	-2.34077E+00
6.75253E-02	7.76069E-02	1.91201E+00	-2.33329E+00
1.07398E-01	-3.22335E-02	1.91208E+00	-2.32584E+00
3.12256E-02	-1.28604E-01	1.91215E+00	-2.31842E+00
-9.98609E-02	-1.18208E-01	1.91222E+00	-2.31103E+00
