jMRUI Data Textfile
 
Filename: GSH.txt
 
PointsInDataset: 2048
DatasetsInFile: 1
SamplingInterval: 5.00000E-01
ZeroOrderPhase: 0E0
BeginTime: 0E0
TransmitterFrequency: 1.27740E+08
MagneticField: 0E0
TypeOfNucleus: 0E0
NameOfPatient: 
DateOfExperiment: 
Spectrometer: Vespa-Simulation
AdditionalInfo: see 'readme' file for Vespa-Simulation output synopsis
 
  
Signal and FFT 
sig(real)	sig(imag)	fft(real)	fft(imag)
Signal 1 out of 1 in file
8.84820E+00	-8.80184E-02	9.47738E+00	-2.24128E+01
6.52236E+00	-3.54633E+00	8.98203E+00	-2.18814E+01
1.56331E+00	-5.14606E+00	8.55499E+00	-2.13785E+01
-2.56094E+00	-4.42435E+00	8.18400E+00	-2.09017E+01
-3.42421E+00	-2.35077E+00	7.86003E+00	-2.04493E+01
-1.37935E+00	-4.68621E-01	7.57588E+00	-2.00201E+01
1.08227E+00	2.32607E-01	7.32555E+00	-1.96128E+01
1.61826E+00	-1.55039E-01	7.10407E+00	-1.92261E+01
-7.72845E-02	-8.04145E-01	6.90728E+00	-1.88588E+01
-2.30872E+00	-9.28660E-01	6.73173E+00	-1.85095E+01
-3.08372E+00	-3.16528E-01	6.57450E+00	-1.81771E+01
-1.84397E+00	6.99944E-01	6.43316E+00	-1.78604E+01
2.61819E-01	1.62976E+00	6.30562E+00	-1.75583E+01
1.61631E+00	2.14868E+00	6.19017E+00	-1.72698E+01
1.60992E+00	2.15405E+00	6.08532E+00	-1.69939E+01
1.01347E+00	1.66061E+00	5.98982E+00	-1.67297E+01
1.03519E+00	7.46149E-01	5.90260E+00	-1.64764E+01
2.05850E+00	-4.06486E-01	5.82272E+00	-1.62333E+01
3.25616E+00	-1.50227E+00	5.74938E+00	-1.59997E+01
3.37863E+00	-2.26036E+00	5.68188E+00	-1.57750E+01
1.92428E+00	-2.58351E+00	5.61961E+00	-1.55586E+01
-3.89528E-01	-2.58127E+00	5.56202E+00	-1.53500E+01
-2.23025E+00	-2.39376E+00	5.50867E+00	-1.51487E+01
-2.72578E+00	-1.99836E+00	5.45915E+00	-1.49542E+01
-2.05214E+00	-1.23850E+00	5.41310E+00	-1.47662E+01
-1.09658E+00	-9.03234E-02	5.37018E+00	-1.45842E+01
-6.09539E-01	1.10780E+00	5.33012E+00	-1.44079E+01
-6.45115E-01	1.76995E+00	5.29268E+00	-1.42370E+01
-7.21028E-01	1.51570E+00	5.25763E+00	-1.40711E+01
-4.24045E-01	5.77403E-01	5.22480E+00	-1.39101E+01
1.77116E-01	-2.69312E-01	5.19399E+00	-1.37536E+01
6.77147E-01	-2.93152E-01	5.16500E+00	-1.36015E+01
8.17981E-01	5.45498E-01	5.13768E+00	-1.34535E+01
7.75166E-01	1.47429E+00	5.11189E+00	-1.33094E+01
9.45525E-01	1.49052E+00	5.08755E+00	-1.31689E+01
1.45781E+00	2.02045E-01	5.06457E+00	-1.30320E+01
1.91937E+00	-1.78145E+00	5.04286E+00	-1.28983E+01
1.69302E+00	-3.26402E+00	5.02233E+00	-1.27679E+01
4.87961E-01	-3.36174E+00	5.00288E+00	-1.26406E+01
-1.27190E+00	-2.14646E+00	4.98443E+00	-1.25162E+01
-2.66471E+00	-5.18668E-01	4.96687E+00	-1.23946E+01
-2.92923E+00	5.46403E-01	4.95015E+00	-1.22757E+01
-2.03111E+00	7.20844E-01	4.93423E+00	-1.21593E+01
-6.74016E-01	4.30930E-01	4.91907E+00	-1.20453E+01
2.47604E-01	3.33501E-01	4.90464E+00	-1.19336E+01
3.06769E-01	6.87425E-01	4.89089E+00	-1.18242E+01
-2.03035E-01	1.18056E+00	4.87776E+00	-1.17170E+01
-5.84951E-01	1.30996E+00	4.86520E+00	-1.16118E+01
-3.32259E-01	9.02053E-01	4.85321E+00	-1.15086E+01
4.86945E-01	2.67944E-01	4.84178E+00	-1.14074E+01
1.33162E+00	-1.27932E-01	4.83085E+00	-1.13080E+01
1.64626E+00	-1.34921E-01	4.82040E+00	-1.12104E+01
1.28046E+00	-5.35121E-02	4.81037E+00	-1.11146E+01
5.46318E-01	-3.11322E-01	4.80068E+00	-1.10204E+01
-8.89285E-02	-9.97557E-01	4.79131E+00	-1.09278E+01
-3.86234E-01	-1.71144E+00	4.78231E+00	-1.08367E+01
-4.74326E-01	-1.88158E+00	4.77374E+00	-1.07470E+01
-6.55239E-01	-1.26810E+00	4.76559E+00	-1.06587E+01
-1.07159E+00	-1.88198E-01	4.75780E+00	-1.05720E+01
-1.53498E+00	7.38112E-01	4.75026E+00	-1.04866E+01
-1.66534E+00	1.08791E+00	4.74292E+00	-1.04026E+01
-1.22045E+00	9.34584E-01	4.73578E+00	-1.03198E+01
-3.33126E-01	6.98208E-01	4.72885E+00	-1.02382E+01
5.50818E-01	7.14223E-01	4.72217E+00	-1.01577E+01
9.91487E-01	9.29900E-01	4.71577E+00	-1.00783E+01
8.75733E-01	9.96944E-01	4.70966E+00	-9.99993E+00
4.81158E-01	6.47756E-01	4.70382E+00	-9.92271E+00
2.33779E-01	-1.55139E-02	4.69820E+00	-9.84658E+00
3.59529E-01	-5.94766E-01	4.69276E+00	-9.77151E+00
7.12482E-01	-7.57679E-01	4.68747E+00	-9.69745E+00
9.13230E-01	-5.41728E-01	4.68231E+00	-9.62435E+00
6.74044E-01	-3.11251E-01	4.67731E+00	-9.55214E+00
3.76171E-02	-4.04821E-01	4.67246E+00	-9.48081E+00
-6.62194E-01	-7.99357E-01	4.66779E+00	-9.41033E+00
-1.07054E+00	-1.10498E+00	4.66329E+00	-9.34070E+00
-1.07546E+00	-9.04534E-01	4.65896E+00	-9.27191E+00
-8.46849E-01	-1.38641E-01	4.65478E+00	-9.20397E+00
-6.37725E-01	8.06197E-01	4.65071E+00	-9.13683E+00
-5.42687E-01	1.38740E+00	4.64672E+00	-9.07046E+00
-4.35285E-01	1.32651E+00	4.64284E+00	-9.00480E+00
-1.32261E-01	8.04012E-01	4.63908E+00	-8.93985E+00
3.80216E-01	2.75885E-01	4.63546E+00	-8.87558E+00
8.80524E-01	8.46988E-02	4.63196E+00	-8.81199E+00
1.07896E+00	2.02296E-01	4.62858E+00	-8.74910E+00
8.70800E-01	3.08883E-01	4.62531E+00	-8.68687E+00
4.41037E-01	1.14709E-01	4.62212E+00	-8.62529E+00
1.15328E-01	-3.70963E-01	4.61901E+00	-8.56433E+00
8.19680E-02	-8.52717E-01	4.61599E+00	-8.50397E+00
2.31652E-01	-1.01396E+00	4.61306E+00	-8.44419E+00
2.62440E-01	-7.86554E-01	4.61020E+00	-8.38500E+00
-3.86565E-02	-3.89012E-01	4.60743E+00	-8.32636E+00
-5.85899E-01	-1.14021E-01	4.60473E+00	-8.26825E+00
-1.04553E+00	-6.83995E-02	4.60212E+00	-8.21069E+00
-1.10647E+00	-1.00076E-01	4.59958E+00	-8.15364E+00
-7.36525E-01	3.14292E-02	4.59711E+00	-8.09710E+00
-2.02255E-01	4.05293E-01	4.59471E+00	-8.04106E+00
1.60585E-01	8.40912E-01	4.59237E+00	-7.98549E+00
2.21685E-01	1.04038E+00	4.59011E+00	-7.93040E+00
1.37067E-01	8.43255E-01	4.58790E+00	-7.87577E+00
1.74102E-01	3.66681E-01	4.58577E+00	-7.82157E+00
4.45482E-01	-9.14600E-02	4.58373E+00	-7.76783E+00
7.93646E-01	-2.98573E-01	4.58175E+00	-7.71455E+00
9.26471E-01	-2.65667E-01	4.57978E+00	-7.66171E+00
6.78951E-01	-2.05960E-01	4.57785E+00	-7.60928E+00
1.65637E-01	-3.17919E-01	4.57596E+00	-7.55722E+00
-3.09949E-01	-5.90926E-01	4.57410E+00	-7.50555E+00
-5.04891E-01	-8.07020E-01	4.57230E+00	-7.45422E+00
-4.23742E-01	-7.35769E-01	4.57057E+00	-7.40324E+00
-2.83747E-01	-3.47346E-01	4.56894E+00	-7.35264E+00
-2.99689E-01	1.46621E-01	4.56734E+00	-7.30244E+00
-4.86504E-01	4.62203E-01	4.56575E+00	-7.25260E+00
-6.53201E-01	4.74631E-01	4.56419E+00	-7.20309E+00
-5.84720E-01	3.10058E-01	4.56266E+00	-7.15388E+00
-2.41845E-01	2.18500E-01	4.56116E+00	-7.10496E+00
1.99308E-01	3.41404E-01	4.55973E+00	-7.05632E+00
4.96644E-01	5.79421E-01	4.55840E+00	-7.00800E+00
5.40465E-01	6.77855E-01	4.55714E+00	-6.96002E+00
4.24619E-01	4.55240E-01	4.55588E+00	-6.91239E+00
3.35917E-01	-2.55005E-02	4.55463E+00	-6.86504E+00
3.71969E-01	-4.94876E-01	4.55339E+00	-6.81796E+00
4.54994E-01	-6.92391E-01	4.55216E+00	-6.77114E+00
4.14605E-01	-5.73583E-01	4.55096E+00	-6.72454E+00
1.57190E-01	-3.29741E-01	4.54981E+00	-6.67817E+00
-2.35244E-01	-2.06138E-01	4.54875E+00	-6.63205E+00
-5.63738E-01	-2.80751E-01	4.54772E+00	-6.58622E+00
-6.71521E-01	-3.99491E-01	4.54671E+00	-6.54065E+00
-5.60064E-01	-3.25296E-01	4.54570E+00	-6.49530E+00
-3.64835E-01	3.15280E-02	4.54471E+00	-6.45017E+00
-2.23443E-01	5.07776E-01	4.54373E+00	-6.40525E+00
-1.61883E-01	8.05095E-01	4.54277E+00	-6.36050E+00
-9.82136E-02	7.33834E-01	4.54187E+00	-6.31592E+00
5.09872E-02	3.73084E-01	4.54105E+00	-6.27153E+00
2.71142E-01	7.10336E-03	4.54030E+00	-6.22737E+00
4.53328E-01	-1.10081E-01	4.53959E+00	-6.18345E+00
4.95143E-01	3.81445E-02	4.53888E+00	-6.13976E+00
3.98800E-01	2.27592E-01	4.53816E+00	-6.09628E+00
2.69623E-01	1.94231E-01	4.53740E+00	-6.05296E+00
2.13829E-01	-1.33909E-01	4.53662E+00	-6.00976E+00
2.32047E-01	-5.70698E-01	4.53587E+00	-5.96666E+00
2.12405E-01	-8.23259E-01	4.53519E+00	-5.92367E+00
3.65213E-02	-7.27383E-01	4.53458E+00	-5.88085E+00
-2.94283E-01	-3.67407E-01	4.53400E+00	-5.83820E+00
-6.28948E-01	1.19662E-02	4.53343E+00	-5.79570E+00
-7.68008E-01	2.13366E-01	4.53287E+00	-5.75334E+00
-6.16606E-01	2.29502E-01	4.53230E+00	-5.71109E+00
-2.62119E-01	2.05881E-01	4.53176E+00	-5.66891E+00
8.87896E-02	2.73856E-01	4.53128E+00	-5.62679E+00
2.62753E-01	4.17104E-01	4.53091E+00	-5.58478E+00
2.38558E-01	4.92870E-01	4.53064E+00	-5.54295E+00
1.40886E-01	3.80277E-01	4.53040E+00	-5.50131E+00
1.22248E-01	1.09230E-01	4.53013E+00	-5.45986E+00
2.34831E-01	-1.55125E-01	4.52980E+00	-5.41854E+00
3.94713E-01	-2.58897E-01	4.52938E+00	-5.37730E+00
4.59571E-01	-1.98303E-01	4.52888E+00	-5.33605E+00
3.48684E-01	-1.18665E-01	4.52842E+00	-5.29473E+00
1.05927E-01	-1.72204E-01	4.52807E+00	-5.25342E+00
-1.40252E-01	-3.66896E-01	4.52782E+00	-5.21220E+00
-2.80171E-01	-5.48868E-01	4.52760E+00	-5.17106E+00
-3.02222E-01	-5.37350E-01	4.52740E+00	-5.12996E+00
-2.85858E-01	-2.88897E-01	4.52728E+00	-5.08888E+00
-3.19011E-01	6.04716E-02	4.52727E+00	-5.04788E+00
-4.11018E-01	3.12911E-01	4.52733E+00	-5.00702E+00
-4.74759E-01	3.75796E-01	4.52736E+00	-4.96630E+00
-3.94853E-01	3.22756E-01	4.52731E+00	-4.92568E+00
-1.29966E-01	2.95867E-01	4.52716E+00	-4.88505E+00
2.32436E-01	3.48489E-01	4.52696E+00	-4.84435E+00
5.17398E-01	3.85754E-01	4.52678E+00	-4.80356E+00
5.76618E-01	2.65129E-01	4.52667E+00	-4.76270E+00
3.93886E-01	-3.83638E-02	4.52667E+00	-4.72181E+00
1.01928E-01	-3.68943E-01	4.52676E+00	-4.68094E+00
-1.07858E-01	-5.05112E-01	4.52690E+00	-4.64012E+00
-1.20809E-01	-3.58707E-01	4.52706E+00	-4.59933E+00
1.98342E-02	-7.25950E-02	4.52721E+00	-4.55855E+00
1.48722E-01	8.73002E-02	4.52735E+00	-4.51773E+00
1.06753E-01	-3.62605E-02	4.52750E+00	-4.47686E+00
-1.34487E-01	-3.39991E-01	4.52767E+00	-4.43593E+00
-4.47466E-01	-5.32150E-01	4.52787E+00	-4.39495E+00
-6.41823E-01	-3.77555E-01	4.52811E+00	-4.35391E+00
-6.02494E-01	9.27807E-02	4.52838E+00	-4.31282E+00
-3.65373E-01	5.91570E-01	4.52869E+00	-4.27168E+00
-7.59524E-02	8.00615E-01	4.52901E+00	-4.23048E+00
1.27633E-01	6.20686E-01	4.52933E+00	-4.18922E+00
2.07648E-01	2.35189E-01	4.52964E+00	-4.14786E+00
2.23495E-01	-5.89028E-02	4.52998E+00	-4.10637E+00
2.48705E-01	-9.89132E-02	4.53035E+00	-4.06475E+00
2.91784E-01	3.11905E-02	4.53078E+00	-4.02301E+00
2.94439E-01	1.09454E-01	4.53126E+00	-3.98117E+00
2.02639E-01	-6.16464E-03	4.53178E+00	-3.93923E+00
3.55357E-02	-2.50756E-01	4.53233E+00	-3.89717E+00
-1.19443E-01	-4.22806E-01	4.53290E+00	-3.85498E+00
-1.83210E-01	-3.75265E-01	4.53349E+00	-3.81266E+00
