jMRUI Data Textfile
 
Filename: Lac.txt
 
PointsInDataset: 2048
DatasetsInFile: 1
SamplingInterval: 5.00000E-01
ZeroOrderPhase: 0E0
BeginTime: 0E0
TransmitterFrequency: 1.27740E+08
MagneticField: 0E0
TypeOfNucleus: 0E0
NameOfPatient: 
DateOfExperiment: 
Spectrometer: Vespa-Simulation
AdditionalInfo: see 'readme' file for Vespa-Simulation output synopsis
 
  
Signal and FFT 
sig(real)	sig(imag)	fft(real)	fft(imag)
Signal 1 out of 1 in file
2.77291E+00	2.09305E-02	1.67211E+00	-3.24275E+00
9.29032E-01	-2.34190E+00	1.66522E+00	-3.21590E+00
-1.66700E+00	-1.16125E+00	1.65863E+00	-3.18955E+00
-1.04935E+00	1.46653E+00	1.65233E+00	-3.16379E+00
1.59197E+00	1.31628E+00	1.64619E+00	-3.13856E+00
1.96684E+00	-1.33726E+00	1.64026E+00	-3.11375E+00
-5.42370E-01	-2.32415E+00	1.63461E+00	-3.08941E+00
-2.06606E+00	-1.90082E-01	1.62916E+00	-3.06559E+00
-4.10004E-01	1.66291E+00	1.62385E+00	-3.04220E+00
1.62709E+00	4.35326E-01	1.61874E+00	-3.01920E+00
7.95473E-01	-1.77173E+00	1.61385E+00	-2.99663E+00
-1.55936E+00	-1.41849E+00	1.60912E+00	-2.97450E+00
-1.77126E+00	9.34402E-01	1.60452E+00	-2.95276E+00
3.81210E-01	1.66313E+00	1.60008E+00	-2.93139E+00
1.48176E+00	-1.93138E-01	1.59580E+00	-2.91038E+00
-8.93559E-02	-1.57119E+00	1.59166E+00	-2.88977E+00
-1.73860E+00	-2.97550E-01	1.58762E+00	-2.86950E+00
-8.57733E-01	1.59381E+00	1.58370E+00	-2.84956E+00
1.14538E+00	1.19129E+00	1.57991E+00	-2.82993E+00
1.19984E+00	-7.61794E-01	1.57623E+00	-2.81063E+00
-6.18421E-01	-1.18376E+00	1.57264E+00	-2.79162E+00
-1.35655E+00	4.84776E-01	1.56917E+00	-2.77287E+00
1.22270E-01	1.54215E+00	1.56585E+00	-2.75440E+00
1.47274E+00	3.50571E-01	1.56266E+00	-2.73623E+00
6.50383E-01	-1.18936E+00	1.55958E+00	-2.71838E+00
-9.54912E-01	-7.38241E-01	1.55659E+00	-2.70082E+00
-8.31127E-01	8.61500E-01	1.55368E+00	-2.68355E+00
7.33670E-01	1.04729E+00	1.55081E+00	-2.66655E+00
1.24111E+00	-4.29657E-01	1.54799E+00	-2.64979E+00
-5.68303E-02	-1.24124E+00	1.54523E+00	-2.63324E+00
-1.09822E+00	-1.97786E-01	1.54257E+00	-2.61690E+00
-3.28938E-01	9.85030E-01	1.54000E+00	-2.60079E+00
9.39679E-01	4.80145E-01	1.53750E+00	-2.58490E+00
7.05217E-01	-8.39765E-01	1.53507E+00	-2.56923E+00
-6.11598E-01	-8.94891E-01	1.53273E+00	-2.55379E+00
-9.49566E-01	3.40101E-01	1.53043E+00	-2.53856E+00
1.37264E-01	9.14518E-01	1.52819E+00	-2.52353E+00
8.91105E-01	6.61441E-03	1.52601E+00	-2.50869E+00
1.75133E-01	-8.86179E-01	1.52389E+00	-2.49405E+00
-8.23798E-01	-3.82658E-01	1.52184E+00	-2.47959E+00
-5.56222E-01	6.74189E-01	1.51985E+00	-2.46534E+00
4.95662E-01	6.45926E-01	1.51790E+00	-2.45127E+00
6.84060E-01	-3.45628E-01	1.51599E+00	-2.43738E+00
-2.11594E-01	-7.19070E-01	1.51413E+00	-2.42367E+00
-7.43287E-01	5.51044E-02	1.51230E+00	-2.41012E+00
-1.17736E-01	7.17919E-01	1.51051E+00	-2.39674E+00
6.38364E-01	2.65767E-01	1.50876E+00	-2.38351E+00
3.70661E-01	-5.37327E-01	1.50706E+00	-2.37042E+00
-4.35848E-01	-4.49356E-01	1.50541E+00	-2.35750E+00
-5.14734E-01	3.25315E-01	1.50379E+00	-2.34473E+00
1.98121E-01	5.55422E-01	1.50221E+00	-2.33210E+00
5.59571E-01	-6.78501E-02	1.50067E+00	-2.31962E+00
4.91844E-02	-5.34316E-01	1.49916E+00	-2.30728E+00
-4.91272E-01	-1.52281E-01	1.49768E+00	-2.29507E+00
-2.44527E-01	4.29931E-01	1.49624E+00	-2.28298E+00
3.48119E-01	3.17815E-01	1.49485E+00	-2.27103E+00
3.63064E-01	-2.56548E-01	1.49350E+00	-2.25922E+00
-1.68609E-01	-3.85600E-01	1.49218E+00	-2.24756E+00
-3.95731E-01	8.35199E-02	1.49088E+00	-2.23603E+00
-5.76719E-03	3.90171E-01	1.48960E+00	-2.22462E+00
3.58029E-01	9.21756E-02	1.48834E+00	-2.21333E+00
1.57803E-01	-3.03224E-01	1.48710E+00	-2.20215E+00
-2.44955E-01	-1.98140E-01	1.48589E+00	-2.19107E+00
-2.27377E-01	1.92872E-01	1.48472E+00	-2.18011E+00
1.36512E-01	2.54438E-01	1.48357E+00	-2.16927E+00
2.67544E-01	-6.71595E-02	1.48243E+00	-2.15855E+00
2.26784E-03	-2.52929E-01	1.48130E+00	-2.14792E+00
-2.18683E-01	-5.17958E-02	1.48020E+00	-2.13739E+00
-8.12274E-02	1.85648E-01	1.47913E+00	-2.12695E+00
1.59075E-01	1.07409E-01	1.47808E+00	-2.11661E+00
1.36207E-01	-1.24930E-01	1.47707E+00	-2.10636E+00
-7.60133E-02	-1.52855E-01	1.47609E+00	-2.09621E+00
-1.45041E-01	2.70190E-02	1.47514E+00	-2.08619E+00
-4.37377E-03	1.22615E-01	1.47418E+00	-2.07627E+00
1.04043E-01	2.07786E-02	1.47323E+00	-2.06643E+00
3.76542E-02	-9.12441E-02	1.47231E+00	-2.05667E+00
-7.08525E-02	-5.80105E-02	1.47142E+00	-2.04700E+00
-6.79857E-02	3.82505E-02	1.47054E+00	-2.03744E+00
7.03869E-03	5.85100E-02	1.46966E+00	-2.02797E+00
3.91624E-02	9.17668E-03	1.46880E+00	-2.01857E+00
1.40084E-02	-2.43999E-02	1.46795E+00	-2.00926E+00
-1.44275E-02	-1.95793E-02	1.46710E+00	-2.00003E+00
-2.69785E-02	-1.15308E-03	1.46626E+00	-1.99086E+00
-2.45385E-02	2.52881E-02	1.46545E+00	-1.98175E+00
8.77981E-03	4.46278E-02	1.46467E+00	-1.97272E+00
5.17727E-02	1.43945E-02	1.46390E+00	-1.96377E+00
3.36798E-02	-4.92641E-02	1.46315E+00	-1.95490E+00
-4.56104E-02	-4.92700E-02	1.46242E+00	-1.94609E+00
-6.81041E-02	4.08758E-02	1.46171E+00	-1.93737E+00
2.72906E-02	9.05201E-02	1.46101E+00	-1.92872E+00
1.07810E-01	-1.71834E-03	1.46033E+00	-1.92014E+00
2.91409E-02	-1.13182E-01	1.45967E+00	-1.91164E+00
-1.09232E-01	-5.75441E-02	1.45902E+00	-1.90322E+00
-8.36546E-02	1.01694E-01	1.45838E+00	-1.89488E+00
8.98425E-02	1.11852E-01	1.45774E+00	-1.88662E+00
1.40953E-01	-6.78165E-02	1.45709E+00	-1.87841E+00
-3.42134E-02	-1.63259E-01	1.45645E+00	-1.87027E+00
-1.73554E-01	-4.62799E-03	1.45581E+00	-1.86219E+00
-4.24618E-02	1.74488E-01	1.45516E+00	-1.85416E+00
1.70380E-01	8.01380E-02	1.45452E+00	-1.84617E+00
1.21187E-01	-1.58998E-01	1.45390E+00	-1.83823E+00
-1.34212E-01	-1.62621E-01	1.45330E+00	-1.83035E+00
-1.95521E-01	9.59746E-02	1.45271E+00	-1.82253E+00
5.22217E-02	2.15427E-01	1.45213E+00	-1.81474E+00
2.26857E-01	-8.68808E-03	1.45159E+00	-1.80701E+00
3.80830E-02	-2.34006E-01	1.45107E+00	-1.79934E+00
-2.31390E-01	-9.26858E-02	1.45057E+00	-1.79173E+00
-1.49173E-01	2.10158E-01	1.45009E+00	-1.78419E+00
1.72107E-01	1.94878E-01	1.44965E+00	-1.77674E+00
2.26218E-01	-1.29169E-01	1.44920E+00	-1.76940E+00
-8.67551E-02	-2.52134E-01	1.44869E+00	-1.76215E+00
-2.77475E-01	3.60382E-02	1.44809E+00	-1.75493E+00
-3.02734E-02	2.90906E-01	1.44747E+00	-1.74767E+00
2.78707E-01	1.01272E-01	1.44688E+00	-1.74037E+00
1.58228E-01	-2.45993E-01	1.44635E+00	-1.73309E+00
-2.11190E-01	-1.99672E-01	1.44591E+00	-1.72584E+00
-2.41911E-01	1.78464E-01	1.44556E+00	-1.71867E+00
1.30373E-01	2.90336E-01	1.44525E+00	-1.71163E+00
3.24664E-01	-5.61315E-02	1.44492E+00	-1.70474E+00
2.57228E-02	-3.24984E-01	1.44450E+00	-1.69794E+00
-3.02135E-01	-8.88684E-02	1.44402E+00	-1.69115E+00
-1.36250E-01	2.83089E-01	1.44351E+00	-1.68435E+00
2.68851E-01	1.94320E-01	1.44301E+00	-1.67755E+00
2.67941E-01	-2.30083E-01	1.44254E+00	-1.67076E+00
-1.52783E-01	-3.24692E-01	1.44210E+00	-1.66400E+00
-3.38300E-01	6.61339E-02	1.44170E+00	-1.65727E+00
4.60343E-03	3.28449E-01	1.44131E+00	-1.65060E+00
3.31915E-01	4.24505E-02	1.44096E+00	-1.64398E+00
1.13791E-01	-3.43672E-01	1.44062E+00	-1.63742E+00
-3.19770E-01	-2.11678E-01	1.44029E+00	-1.63093E+00
-2.88696E-01	2.44504E-01	1.43994E+00	-1.62450E+00
1.60612E-01	3.13442E-01	1.43959E+00	-1.61811E+00
3.17854E-01	-1.09987E-01	1.43922E+00	-1.61176E+00
-7.05706E-02	-3.48713E-01	1.43885E+00	-1.60544E+00
-3.91491E-01	-9.91905E-03	1.43848E+00	-1.59916E+00
-1.28190E-01	3.85907E-01	1.43810E+00	-1.59290E+00
3.17092E-01	2.19929E-01	1.43774E+00	-1.58667E+00
2.51040E-01	-2.43880E-01	1.43738E+00	-1.58048E+00
-2.13614E-01	-2.68995E-01	1.43701E+00	-1.57433E+00
-3.29599E-01	1.89014E-01	1.43664E+00	-1.56820E+00
1.04330E-01	4.05141E-01	1.43629E+00	-1.56208E+00
4.18538E-01	2.81820E-02	1.43595E+00	-1.55600E+00
1.26383E-01	-3.59277E-01	1.43563E+00	-1.54995E+00
-3.04030E-01	-1.57061E-01	1.43532E+00	-1.54394E+00
-1.86076E-01	3.02389E-01	1.43502E+00	-1.53796E+00
2.98531E-01	2.75974E-01	1.43473E+00	-1.53204E+00
3.82426E-01	-2.14653E-01	1.43444E+00	-1.52616E+00
-7.55621E-02	-4.12554E-01	1.43414E+00	-1.52032E+00
-3.64239E-01	-1.92212E-02	1.43383E+00	-1.51449E+00
-4.17189E-02	3.32615E-01	1.43354E+00	-1.50869E+00
3.65597E-01	7.79205E-02	1.43326E+00	-1.50293E+00
1.94001E-01	-3.86247E-01	1.43298E+00	-1.49721E+00
-3.07485E-01	-3.26098E-01	1.43270E+00	-1.49152E+00
-3.68026E-01	1.70013E-01	1.43243E+00	-1.48587E+00
8.89187E-02	3.30233E-01	1.43213E+00	-1.48027E+00
3.25698E-01	-8.22893E-02	1.43180E+00	-1.47466E+00
-4.33998E-02	-3.96189E-01	1.43148E+00	-1.46904E+00
-4.42403E-01	-9.34380E-02	1.43123E+00	-1.46343E+00
-2.43121E-01	3.71804E-01	1.43102E+00	-1.45789E+00
2.43719E-01	2.89886E-01	1.43078E+00	-1.45243E+00
2.60548E-01	-1.85739E-01	1.43051E+00	-1.44699E+00
-2.01545E-01	-2.84063E-01	1.43022E+00	-1.44156E+00
-3.91534E-01	1.64478E-01	1.42994E+00	-1.43614E+00
1.37737E-02	4.61397E-01	1.42967E+00	-1.43072E+00
4.00370E-01	1.43562E-01	1.42943E+00	-1.42532E+00
1.86946E-01	-2.88251E-01	1.42923E+00	-1.41997E+00
-2.60882E-01	-1.62792E-01	1.42902E+00	-1.41469E+00
-2.12853E-01	3.03695E-01	1.42879E+00	-1.40945E+00
2.72297E-01	3.53421E-01	1.42852E+00	-1.40424E+00
4.42286E-01	-1.15363E-01	1.42823E+00	-1.39901E+00
3.89413E-02	-3.90531E-01	1.42795E+00	-1.39376E+00
-2.99066E-01	-7.06126E-02	1.42773E+00	-1.38852E+00
-4.76503E-02	3.07133E-01	1.42755E+00	-1.38334E+00
3.78930E-01	1.20636E-01	1.42736E+00	-1.37822E+00
2.87534E-01	-3.55863E-01	1.42715E+00	-1.37315E+00
-2.00221E-01	-3.88539E-01	1.42691E+00	-1.36809E+00
-3.44197E-01	5.92487E-02	1.42666E+00	-1.36303E+00
4.68172E-02	2.75927E-01	1.42642E+00	-1.35797E+00
3.21083E-01	-7.25499E-02	1.42621E+00	-1.35292E+00
1.80860E-02	-4.21011E-01	1.42602E+00	-1.34790E+00
-4.07435E-01	-2.02438E-01	1.42586E+00	-1.34293E+00
-3.07310E-01	2.59740E-01	1.42568E+00	-1.33801E+00
1.40992E-01	2.67335E-01	1.42547E+00	-1.33313E+00
2.22597E-01	-1.53640E-01	1.42524E+00	-1.32825E+00
-1.85553E-01	-3.03312E-01	1.42501E+00	-1.32337E+00
-4.27739E-01	8.33730E-02	1.42478E+00	-1.31849E+00
-1.08402E-01	4.23188E-01	1.42459E+00	-1.31361E+00
2.88716E-01	2.08286E-01	1.42442E+00	-1.30876E+00
1.68973E-01	-1.98861E-01	1.42427E+00	-1.30397E+00
-2.40109E-01	-1.46114E-01	1.42412E+00	-1.29923E+00
-2.57975E-01	2.80553E-01	1.42393E+00	-1.29452E+00
