jMRUI Data Textfile
 
Filename: mI.txt
 
PointsInDataset: 2048
DatasetsInFile: 1
SamplingInterval: 5.00000E-01
ZeroOrderPhase: 0E0
BeginTime: 0E0
TransmitterFrequency: 1.27740E+08
MagneticField: 0E0
TypeOfNucleus: 0E0
NameOfPatient: 
DateOfExperiment: 
Spectrometer: Vespa-Simulation
AdditionalInfo: see 'readme' file for Vespa-Simulation output synopsis
 
  
Signal and FFT 
sig(real)	sig(imag)	fft(real)	fft(imag)
Signal 1 out of 1 in file
5.39182E+00	-1.28368E-01	2.81241E+00	-1.29383E+01
4.75197E+00	-2.36568E+00	2.80752E+00	-1.28331E+01
3.21586E+00	-4.05935E+00	2.80279E+00	-1.27297E+01
1.14015E+00	-4.87709E+00	2.79823E+00	-1.26280E+01
-1.01397E+00	-4.69397E+00	2.79381E+00	-1.25280E+01
-2.79184E+00	-3.61221E+00	2.78953E+00	-1.24296E+01
-3.84954E+00	-1.92561E+00	2.78540E+00	-1.23328E+01
-4.02592E+00	-4.04799E-02	2.78142E+00	-1.22376E+01
-3.36676E+00	1.62517E+00	2.77755E+00	-1.21439E+01
-2.09829E+00	2.73789E+00	2.77381E+00	-1.20516E+01
-5.60352E-01	3.11751E+00	2.77020E+00	-1.19608E+01
8.80994E-01	2.76404E+00	2.76670E+00	-1.18713E+01
1.91890E+00	1.84009E+00	2.76330E+00	-1.17832E+01
2.36869E+00	6.17531E-01	2.76002E+00	-1.16965E+01
2.19602E+00	-5.95125E-01	2.75684E+00	-1.16110E+01
1.50762E+00	-1.52532E+00	2.75375E+00	-1.15268E+01
5.11508E-01	-1.99214E+00	2.75076E+00	-1.14438E+01
-5.40094E-01	-1.93454E+00	2.74787E+00	-1.13621E+01
-1.40982E+00	-1.40980E+00	2.74506E+00	-1.12815E+01
-1.92279E+00	-5.66920E-01	2.74234E+00	-1.12020E+01
-1.99417E+00	3.94999E-01	2.73970E+00	-1.11237E+01
-1.63469E+00	1.27220E+00	2.73714E+00	-1.10465E+01
-9.36732E-01	1.89545E+00	2.73467E+00	-1.09703E+01
-4.76081E-02	2.15676E+00	2.73227E+00	-1.08952E+01
8.62473E-01	2.02105E+00	2.72994E+00	-1.08211E+01
1.63126E+00	1.52424E+00	2.72768E+00	-1.07481E+01
2.12963E+00	7.60680E-01	2.72548E+00	-1.06760E+01
2.27881E+00	-1.36085E-01	2.72334E+00	-1.06049E+01
2.05916E+00	-1.01580E+00	2.72125E+00	-1.05347E+01
1.51062E+00	-1.73459E+00	2.71922E+00	-1.04655E+01
7.25489E-01	-2.17653E+00	2.71723E+00	-1.03971E+01
-1.65877E-01	-2.27135E+00	2.71529E+00	-1.03296E+01
-1.01538E+00	-2.00640E+00	2.71340E+00	-1.02630E+01
-1.68135E+00	-1.43015E+00	2.71156E+00	-1.01972E+01
-2.05352E+00	-6.45577E-01	2.70977E+00	-1.01322E+01
-2.07393E+00	2.06577E-01	2.70805E+00	-1.00681E+01
-1.74951E+00	9.73308E-01	2.70638E+00	-1.00047E+01
-1.15249E+00	1.51878E+00	2.70477E+00	-9.94207E+00
-4.07235E-01	1.75197E+00	2.70321E+00	-9.88024E+00
3.34871E-01	1.64620E+00	2.70171E+00	-9.81918E+00
9.27217E-01	1.24512E+00	2.70024E+00	-9.75886E+00
1.25996E+00	6.53122E-01	2.69880E+00	-9.69927E+00
1.28393E+00	1.16801E-02	2.69738E+00	-9.64039E+00
1.02088E+00	-5.33298E-01	2.69599E+00	-9.58220E+00
5.56997E-01	-8.65073E-01	2.69463E+00	-9.52468E+00
2.09946E-02	-9.22776E-01	2.69331E+00	-9.46781E+00
-4.47643E-01	-7.14172E-01	2.69203E+00	-9.41159E+00
-7.32668E-01	-3.11655E-01	2.69079E+00	-9.35600E+00
-7.68513E-01	1.67543E-01	2.68960E+00	-9.30105E+00
-5.54642E-01	5.91552E-01	2.68845E+00	-9.24672E+00
-1.53432E-01	8.46877E-01	2.68733E+00	-9.19302E+00
3.27332E-01	8.65645E-01	2.68623E+00	-9.13993E+00
7.62587E-01	6.40702E-01	2.68516E+00	-9.08742E+00
1.04107E+00	2.25188E-01	2.68410E+00	-9.03549E+00
1.09177E+00	-2.82629E-01	2.68307E+00	-8.98411E+00
8.99309E-01	-7.64581E-01	2.68207E+00	-8.93329E+00
5.05121E-01	-1.11143E+00	2.68110E+00	-8.88302E+00
-4.80864E-03	-1.24776E+00	2.68017E+00	-8.83328E+00
-5.22036E-01	-1.14747E+00	2.67925E+00	-8.78408E+00
-9.41318E-01	-8.36711E-01	2.67836E+00	-8.73541E+00
-1.18362E+00	-3.84708E-01	2.67749E+00	-8.68724E+00
-1.21143E+00	1.14461E-01	2.67663E+00	-8.63958E+00
-1.03343E+00	5.63867E-01	2.67579E+00	-8.59240E+00
-6.98561E-01	8.84467E-01	2.67498E+00	-8.54571E+00
-2.82146E-01	1.02967E+00	2.67419E+00	-8.49949E+00
1.32221E-01	9.91599E-01	2.67344E+00	-8.45374E+00
4.70499E-01	7.98452E-01	2.67270E+00	-8.40846E+00
6.81719E-01	5.04763E-01	2.67198E+00	-8.36364E+00
7.45396E-01	1.77541E-01	2.67128E+00	-8.31928E+00
6.71804E-01	-1.18342E-01	2.67059E+00	-8.27535E+00
4.96197E-01	-3.32551E-01	2.66991E+00	-8.23186E+00
2.68938E-01	-4.37136E-01	2.66925E+00	-8.18879E+00
4.40059E-02	-4.29311E-01	2.66862E+00	-8.14613E+00
-1.31866E-01	-3.29113E-01	2.66801E+00	-8.10390E+00
-2.27386E-01	-1.73087E-01	2.66741E+00	-8.06209E+00
-2.31343E-01	-5.62565E-03	2.66681E+00	-8.02068E+00
-1.53128E-01	1.30372E-01	2.66622E+00	-7.97967E+00
-1.94578E-02	2.01900E-01	2.66563E+00	-7.93903E+00
1.31860E-01	1.91892E-01	2.66505E+00	-7.89877E+00
2.59975E-01	1.02131E-01	2.66449E+00	-7.85886E+00
3.29414E-01	-4.74696E-02	2.66396E+00	-7.81932E+00
3.17398E-01	-2.23090E-01	2.66346E+00	-7.78014E+00
2.18706E-01	-3.83861E-01	2.66299E+00	-7.74134E+00
4.71648E-02	-4.90314E-01	2.66253E+00	-7.70291E+00
-1.66746E-01	-5.12719E-01	2.66208E+00	-7.66484E+00
-3.81642E-01	-4.37654E-01	2.66163E+00	-7.62712E+00
-5.53550E-01	-2.71465E-01	2.66118E+00	-7.58975E+00
-6.44985E-01	-3.97107E-02	2.66073E+00	-7.55270E+00
-6.33004E-01	2.17523E-01	2.66028E+00	-7.51597E+00
-5.14396E-01	4.53344E-01	2.65985E+00	-7.47956E+00
-3.06918E-01	6.23574E-01	2.65944E+00	-7.44345E+00
-4.61178E-02	6.95836E-01	2.65905E+00	-7.40767E+00
2.21721E-01	6.56328E-01	2.65868E+00	-7.37221E+00
4.48792E-01	5.12724E-01	2.65832E+00	-7.33705E+00
5.95497E-01	2.92653E-01	2.65797E+00	-7.30220E+00
6.38400E-01	3.78863E-02	2.65764E+00	-7.26767E+00
5.74658E-01	-2.04240E-01	2.65731E+00	-7.23345E+00
4.22181E-01	-3.90582E-01	2.65696E+00	-7.19952E+00
2.15414E-01	-4.90820E-01	2.65661E+00	-7.16587E+00
-2.30903E-03	-4.93251E-01	2.65625E+00	-7.13248E+00
-1.87954E-01	-4.06443E-01	2.65591E+00	-7.09936E+00
-3.07753E-01	-2.56661E-01	2.65559E+00	-7.06649E+00
-3.43884E-01	-8.15875E-02	2.65529E+00	-7.03389E+00
-2.97570E-01	7.82177E-02	2.65502E+00	-7.00156E+00
-1.87980E-01	1.88117E-01	2.65478E+00	-6.96951E+00
-4.73492E-02	2.26742E-01	2.65455E+00	-6.93774E+00
8.66556E-02	1.90232E-01	2.65432E+00	-6.90625E+00
1.79497E-01	9.25268E-02	2.65407E+00	-6.87503E+00
2.07524E-01	-3.82168E-02	2.65382E+00	-6.84406E+00
1.63173E-01	-1.66316E-01	2.65356E+00	-6.81332E+00
5.65096E-02	-2.56864E-01	2.65330E+00	-6.78281E+00
-8.71499E-02	-2.83744E-01	2.65305E+00	-6.75254E+00
-2.33055E-01	-2.35701E-01	2.65281E+00	-6.72250E+00
-3.44956E-01	-1.19050E-01	2.65258E+00	-6.69268E+00
-3.93420E-01	4.36128E-02	2.65236E+00	-6.66310E+00
-3.62611E-01	2.18290E-01	2.65215E+00	-6.63375E+00
-2.54098E-01	3.67146E-01	2.65195E+00	-6.60461E+00
-8.66938E-02	4.56973E-01	2.65178E+00	-6.57568E+00
1.07508E-01	4.66581E-01	2.65163E+00	-6.54698E+00
2.90153E-01	3.91593E-01	2.65151E+00	-6.51851E+00
4.25001E-01	2.45420E-01	2.65141E+00	-6.49030E+00
4.85813E-01	5.62227E-02	2.65131E+00	-6.46234E+00
4.61841E-01	-1.39291E-01	2.65118E+00	-6.43462E+00
3.59852E-01	-3.03937E-01	2.65101E+00	-6.40712E+00
2.02188E-01	-4.07986E-01	2.65079E+00	-6.37981E+00
2.14031E-02	-4.35219E-01	2.65054E+00	-6.35266E+00
-1.47040E-01	-3.85694E-01	2.65027E+00	-6.32564E+00
-2.72441E-01	-2.74865E-01	2.65004E+00	-6.29874E+00
-3.35007E-01	-1.29337E-01	2.64990E+00	-6.27200E+00
-3.29211E-01	1.95094E-02	2.64985E+00	-6.24548E+00
-2.63787E-01	1.42531E-01	2.64985E+00	-6.21921E+00
-1.58641E-01	2.18594E-01	2.64986E+00	-6.19319E+00
-3.96690E-02	2.38244E-01	2.64988E+00	-6.16741E+00
6.71760E-02	2.04445E-01	2.64986E+00	-6.14189E+00
1.41159E-01	1.30650E-01	2.64977E+00	-6.11658E+00
1.70331E-01	3.69485E-02	2.64959E+00	-6.09143E+00
1.52880E-01	-5.46008E-02	2.64937E+00	-6.06639E+00
9.63476E-02	-1.24384E-01	2.64916E+00	-6.04145E+00
1.52094E-02	-1.58589E-01	2.64899E+00	-6.01663E+00
-7.23396E-02	-1.51002E-01	2.64886E+00	-5.99197E+00
-1.47773E-01	-1.03405E-01	2.64878E+00	-5.96747E+00
-1.95192E-01	-2.47174E-02	2.64875E+00	-5.94314E+00
-2.03619E-01	7.06708E-02	2.64877E+00	-5.91903E+00
-1.68547E-01	1.65085E-01	2.64879E+00	-5.89514E+00
-9.27698E-02	2.40061E-01	2.64879E+00	-5.87147E+00
1.36130E-02	2.79086E-01	2.64873E+00	-5.84797E+00
1.33990E-01	2.70347E-01	2.64863E+00	-5.82461E+00
2.47218E-01	2.09354E-01	2.64852E+00	-5.80138E+00
3.30705E-01	1.00846E-01	2.64842E+00	-5.77827E+00
3.64470E-01	-4.06052E-02	2.64832E+00	-5.75529E+00
3.35563E-01	-1.91848E-01	2.64825E+00	-5.73246E+00
2.41952E-01	-3.24523E-01	2.64821E+00	-5.70978E+00
9.46495E-02	-4.10364E-01	2.64818E+00	-5.68726E+00
-8.26360E-02	-4.27330E-01	2.64815E+00	-5.66490E+00
-2.57060E-01	-3.65497E-01	2.64812E+00	-5.64270E+00
-3.92904E-01	-2.30873E-01	2.64808E+00	-5.62064E+00
-4.59452E-01	-4.59087E-02	2.64803E+00	-5.59872E+00
-4.38652E-01	1.53965E-01	2.64800E+00	-5.57693E+00
-3.30542E-01	3.27392E-01	2.64797E+00	-5.55527E+00
-1.54775E-01	4.36326E-01	2.64795E+00	-5.53376E+00
5.26922E-02	4.55337E-01	2.64794E+00	-5.51239E+00
2.47028E-01	3.78374E-01	2.64793E+00	-5.49117E+00
3.84867E-01	2.21306E-01	2.64792E+00	-5.47009E+00
4.34791E-01	1.90503E-02	2.64790E+00	-5.44914E+00
3.85344E-01	-1.82195E-01	2.64787E+00	-5.42831E+00
2.48365E-01	-3.35839E-01	2.64785E+00	-5.40761E+00
5.65965E-02	-4.06228E-01	2.64783E+00	-5.38703E+00
-1.44099E-01	-3.77512E-01	2.64782E+00	-5.36658E+00
-3.05743E-01	-2.57612E-01	2.64782E+00	-5.34625E+00
-3.90046E-01	-7.63468E-02	2.64783E+00	-5.32606E+00
-3.77719E-01	1.21985E-01	2.64783E+00	-5.30599E+00
-2.72973E-01	2.89583E-01	2.64783E+00	-5.28605E+00
-1.02109E-01	3.86861E-01	2.64783E+00	-5.26623E+00
9.33483E-02	3.91876E-01	2.64783E+00	-5.24653E+00
2.67205E-01	3.05124E-01	2.64783E+00	-5.22694E+00
3.79738E-01	1.48626E-01	2.64783E+00	-5.20747E+00
4.06972E-01	-4.02104E-02	2.64783E+00	-5.18811E+00
3.45555E-01	-2.18201E-01	2.64785E+00	-5.16887E+00
2.12352E-01	-3.46820E-01	2.64786E+00	-5.14975E+00
3.92129E-02	-4.00810E-01	2.64787E+00	-5.13074E+00
-1.35431E-01	-3.72950E-01	2.64787E+00	-5.11184E+00
-2.75776E-01	-2.74160E-01	2.64788E+00	-5.09303E+00
-3.56388E-01	-1.29281E-01	2.64790E+00	-5.07433E+00
-3.66532E-01	2.97671E-02	2.64793E+00	-5.05575E+00
-3.10759E-01	1.71692E-01	2.64797E+00	-5.03728E+00
-2.05899E-01	2.72256E-01	2.64800E+00	-5.01892E+00
-7.58261E-02	3.18149E-01	2.64804E+00	-5.00067E+00
5.43642E-02	3.07814E-01	2.64808E+00	-4.98254E+00
1.63276E-01	2.49651E-01	2.64810E+00	-4.96451E+00
2.36357E-01	1.58558E-01	2.64812E+00	-4.94657E+00
2.66798E-01	5.21424E-02	2.64813E+00	-4.92873E+00
