jMRUI Data Textfile
 
Filename: NAA.txt
 
PointsInDataset: 2048
DatasetsInFile: 1
SamplingInterval: 5.00000E-01
ZeroOrderPhase: 0E0
BeginTime: 0E0
TransmitterFrequency: 1.27740E+08
MagneticField: 0E0
TypeOfNucleus: 0E0
NameOfPatient: 
DateOfExperiment: 
Spectrometer: Vespa-Simulation
AdditionalInfo: see 'readme' file for Vespa-Simulation output synopsis
 
  
Signal and FFT 
sig(real)	sig(imag)	fft(real)	fft(imag)
Signal 1 out of 1 in file
5.57172E+00	-1.20734E-01	3.63202E+00	-6.69924E+00
2.85578E+00	-2.92570E+00	3.59079E+00	-6.61606E+00
-2.12920E+00	-3.29607E+00	3.55184E+00	-6.53529E+00
-4.23566E+00	-9.36726E-01	3.51514E+00	-6.45683E+00
-1.67327E+00	2.08327E+00	3.48060E+00	-6.38057E+00
2.41371E+00	2.99299E+00	3.44807E+00	-6.30646E+00
3.74517E+00	8.88585E-01	3.41743E+00	-6.23437E+00
1.45484E+00	-2.20489E+00	3.38855E+00	-6.16421E+00
-1.54677E+00	-3.20422E+00	3.36133E+00	-6.09591E+00
-2.18884E+00	-1.17152E+00	3.33565E+00	-6.02938E+00
-4.00497E-01	1.59653E+00	3.31141E+00	-5.96454E+00
1.41031E+00	2.04957E+00	3.28851E+00	-5.90130E+00
1.32238E+00	-1.78404E-01	3.26692E+00	-5.83959E+00
-2.35428E-01	-2.34947E+00	3.24654E+00	-5.77939E+00
-1.38696E+00	-1.83799E+00	3.22729E+00	-5.72064E+00
-9.67951E-01	7.41291E-01	3.20908E+00	-5.66329E+00
4.42852E-01	2.24585E+00	3.19185E+00	-5.60729E+00
1.32985E+00	7.73899E-01	3.17554E+00	-5.55257E+00
7.59866E-01	-2.00338E+00	3.16008E+00	-5.49909E+00
-7.99588E-01	-2.76805E+00	3.14542E+00	-5.44682E+00
-1.90546E+00	-4.72223E-01	3.13152E+00	-5.39570E+00
-1.40541E+00	2.39300E+00	3.11831E+00	-5.34572E+00
4.28545E-01	2.64826E+00	3.10571E+00	-5.29680E+00
1.93496E+00	2.97923E-02	3.09369E+00	-5.24889E+00
1.51867E+00	-2.58411E+00	3.08224E+00	-5.20190E+00
-6.41831E-01	-2.43242E+00	3.07137E+00	-5.15584E+00
-2.47428E+00	1.85048E-01	3.06105E+00	-5.11070E+00
-1.99010E+00	2.44964E+00	3.05121E+00	-5.06649E+00
5.01117E-01	2.15429E+00	3.04179E+00	-5.02313E+00
2.47449E+00	-1.32616E-01	3.03276E+00	-4.98058E+00
1.80209E+00	-1.96691E+00	3.02413E+00	-4.93881E+00
-8.47026E-01	-1.65466E+00	3.01587E+00	-4.89777E+00
-2.61533E+00	2.39125E-01	3.00796E+00	-4.85745E+00
-1.57433E+00	1.74942E+00	3.00039E+00	-4.81783E+00
1.11340E+00	1.51827E+00	2.99314E+00	-4.77888E+00
2.48798E+00	-6.18755E-02	2.98619E+00	-4.74056E+00
1.10609E+00	-1.40985E+00	2.97955E+00	-4.70286E+00
-1.39526E+00	-1.27998E+00	2.97320E+00	-4.66577E+00
-2.22147E+00	1.36885E-01	2.96713E+00	-4.62928E+00
-5.60341E-01	1.42875E+00	2.96131E+00	-4.59338E+00
1.62953E+00	1.29525E+00	2.95571E+00	-4.55804E+00
1.93671E+00	-1.67688E-01	2.95035E+00	-4.52322E+00
1.59398E-01	-1.48275E+00	2.94521E+00	-4.48893E+00
-1.64078E+00	-1.24336E+00	2.94028E+00	-4.45517E+00
-1.54056E+00	3.64359E-01	2.93554E+00	-4.42191E+00
2.04326E-01	1.63712E+00	2.93097E+00	-4.38912E+00
1.62693E+00	1.13502E+00	2.92656E+00	-4.35681E+00
1.26525E+00	-6.76125E-01	2.92231E+00	-4.32494E+00
-3.78889E-01	-1.82446E+00	2.91820E+00	-4.29350E+00
-1.54233E+00	-9.85401E-01	2.91424E+00	-4.26246E+00
-1.08922E+00	9.76667E-01	2.91043E+00	-4.23183E+00
4.27547E-01	1.89769E+00	2.90675E+00	-4.20159E+00
1.45177E+00	7.23069E-01	2.90321E+00	-4.17171E+00
9.96482E-01	-1.27735E+00	2.89982E+00	-4.14220E+00
-4.52310E-01	-1.90273E+00	2.89655E+00	-4.11308E+00
-1.46521E+00	-4.68581E-01	2.89339E+00	-4.08431E+00
-1.05515E+00	1.45052E+00	2.89032E+00	-4.05587E+00
3.78635E-01	1.78955E+00	2.88739E+00	-4.02775E+00
1.42446E+00	2.49366E-01	2.88458E+00	-3.99996E+00
1.02908E+00	-1.45574E+00	2.88188E+00	-3.97252E+00
-4.29125E-01	-1.53132E+00	2.87925E+00	-3.94540E+00
-1.46937E+00	-4.82203E-03	2.87671E+00	-3.91858E+00
-1.00323E+00	1.43205E+00	2.87423E+00	-3.89205E+00
5.00054E-01	1.31277E+00	2.87184E+00	-3.86580E+00
1.45718E+00	-1.08890E-01	2.86952E+00	-3.83982E+00
8.44361E-01	-1.26907E+00	2.86729E+00	-3.81410E+00
-6.73202E-01	-1.00341E+00	2.86513E+00	-3.78865E+00
-1.43459E+00	3.08102E-01	2.86303E+00	-3.76346E+00
-5.97552E-01	1.25181E+00	2.86099E+00	-3.73852E+00
9.19969E-01	8.78352E-01	2.85902E+00	-3.71379E+00
1.44258E+00	-3.77204E-01	2.85712E+00	-3.68930E+00
3.89379E-01	-1.20447E+00	2.85529E+00	-3.66504E+00
-1.08384E+00	-7.62442E-01	2.85354E+00	-3.64100E+00
-1.36308E+00	4.91146E-01	2.85186E+00	-3.61719E+00
-1.44046E-01	1.27511E+00	2.85024E+00	-3.59361E+00
1.25755E+00	7.75956E-01	2.84867E+00	-3.57028E+00
1.35441E+00	-5.23962E-01	2.84711E+00	-3.54714E+00
7.36899E-02	-1.31676E+00	2.84561E+00	-3.52417E+00
-1.21915E+00	-7.90658E-01	2.84419E+00	-3.50140E+00
-1.20659E+00	5.26839E-01	2.84282E+00	-3.47886E+00
2.63780E-02	1.29322E+00	2.84146E+00	-3.45652E+00
1.16542E+00	7.34120E-01	2.84013E+00	-3.43433E+00
1.08227E+00	-5.51082E-01	2.83886E+00	-3.41232E+00
-4.18279E-02	-1.22481E+00	2.83762E+00	-3.39051E+00
-9.99490E-01	-6.25209E-01	2.83639E+00	-3.36885E+00
-8.51041E-01	5.53876E-01	2.83520E+00	-3.34731E+00
1.49122E-01	1.04163E+00	2.83411E+00	-3.32595E+00
8.98678E-01	3.67357E-01	2.83304E+00	-3.30480E+00
6.32657E-01	-6.66541E-01	2.83194E+00	-3.28377E+00
-3.03101E-01	-9.05589E-01	2.83093E+00	-3.26282E+00
-8.62699E-01	-1.16809E-01	2.83003E+00	-3.24211E+00
-4.32409E-01	7.84468E-01	2.82907E+00	-3.22160E+00
5.12670E-01	7.72133E-01	2.82811E+00	-3.20114E+00
9.18545E-01	-1.54441E-01	2.82727E+00	-3.18082E+00
2.94369E-01	-9.73874E-01	2.82644E+00	-3.16072E+00
-7.29208E-01	-7.60226E-01	2.82557E+00	-3.14073E+00
-1.04395E+00	3.07045E-01	2.82475E+00	-3.12083E+00
-2.52016E-01	1.11811E+00	2.82398E+00	-3.10108E+00
8.69568E-01	7.97161E-01	2.82321E+00	-3.08148E+00
1.15319E+00	-3.71843E-01	2.82244E+00	-3.06197E+00
2.66685E-01	-1.21913E+00	2.82171E+00	-3.04256E+00
-9.16668E-01	-8.77535E-01	2.82103E+00	-3.02327E+00
-1.20755E+00	3.31542E-01	2.82036E+00	-3.00412E+00
-3.19577E-01	1.21560E+00	2.81969E+00	-2.98506E+00
8.51829E-01	9.08094E-01	2.81907E+00	-2.96608E+00
1.15839E+00	-2.67106E-01	2.81850E+00	-2.94722E+00
3.49770E-01	-1.13681E+00	2.81796E+00	-2.92851E+00
-7.26459E-01	-8.68966E-01	2.81740E+00	-2.90990E+00
-1.02402E+00	2.06808E-01	2.81687E+00	-2.89137E+00
-3.31902E-01	9.78863E-01	2.81638E+00	-2.87293E+00
5.88928E-01	7.13992E-01	2.81592E+00	-2.85462E+00
8.30637E-01	-2.22666E-01	2.81547E+00	-2.83643E+00
2.37683E-01	-8.17574E-01	2.81502E+00	-2.81834E+00
-5.09751E-01	-5.04621E-01	2.81456E+00	-2.80036E+00
-6.46112E-01	2.81504E-01	2.81409E+00	-2.78246E+00
-9.85090E-02	6.50354E-01	2.81359E+00	-2.76461E+00
4.89466E-01	2.48030E-01	2.81312E+00	-2.74680E+00
4.73673E-01	-4.02722E-01	2.81270E+00	-2.72904E+00
-1.02348E-01	-5.42180E-01	2.81232E+00	-2.71135E+00
-5.69573E-01	-3.22138E-02	2.81200E+00	-2.69375E+00
-3.77256E-01	5.21660E-01	2.81172E+00	-2.67623E+00
2.82416E-01	4.77168E-01	2.81148E+00	-2.65884E+00
6.62658E-01	-1.27451E-01	2.81124E+00	-2.64157E+00
2.88095E-01	-6.27616E-01	2.81098E+00	-2.62438E+00
-4.79763E-01	-4.64546E-01	2.81071E+00	-2.60727E+00
-7.95423E-01	2.14652E-01	2.81045E+00	-2.59023E+00
-2.57852E-01	7.13582E-01	2.81017E+00	-2.57325E+00
6.03928E-01	5.08665E-01	2.80990E+00	-2.55632E+00
8.64989E-01	-2.16221E-01	2.80964E+00	-2.53944E+00
2.10040E-01	-7.49953E-01	2.80940E+00	-2.52262E+00
-6.95318E-01	-5.54884E-01	2.80917E+00	-2.50586E+00
-9.00089E-01	2.00778E-01	2.80894E+00	-2.48915E+00
-1.85509E-01	7.92043E-01	2.80874E+00	-2.47248E+00
7.04378E-01	6.32959E-01	2.80856E+00	-2.45586E+00
8.61181E-01	-1.41457E-01	2.80841E+00	-2.43931E+00
1.60518E-01	-7.82334E-01	2.80829E+00	-2.42283E+00
-6.49562E-01	-6.52042E-01	2.80817E+00	-2.40641E+00
-7.64584E-01	1.28552E-01	2.80804E+00	-2.39007E+00
-1.34728E-01	7.78702E-01	2.80791E+00	-2.37376E+00
5.57892E-01	6.42503E-01	2.80779E+00	-2.35749E+00
6.46846E-01	-1.28953E-01	2.80769E+00	-2.34126E+00
1.24664E-01	-7.29160E-01	2.80761E+00	-2.32508E+00
-4.36172E-01	-5.47631E-01	2.80756E+00	-2.30896E+00
-5.05578E-01	1.84412E-01	2.80751E+00	-2.29290E+00
-8.79244E-02	6.61787E-01	2.80744E+00	-2.27690E+00
3.56467E-01	3.94195E-01	2.80737E+00	-2.26093E+00
4.00028E-01	-2.72682E-01	2.80730E+00	-2.24500E+00
4.41992E-02	-5.77167E-01	2.80722E+00	-2.22909E+00
-3.22532E-01	-2.08587E-01	2.80716E+00	-2.21320E+00
-3.24546E-01	3.69109E-01	2.80712E+00	-2.19732E+00
3.01324E-02	4.82061E-01	2.80711E+00	-2.18147E+00
3.57372E-01	2.15594E-02	2.80713E+00	-2.16568E+00
2.87559E-01	-4.59932E-01	2.80717E+00	-2.14993E+00
-1.32847E-01	-4.06233E-01	2.80721E+00	-2.13423E+00
-4.54790E-01	1.14626E-01	2.80724E+00	-2.11858E+00
-2.91564E-01	5.14781E-01	2.80727E+00	-2.10292E+00
2.29933E-01	3.59308E-01	2.80733E+00	-2.08729E+00
5.52785E-01	-1.71833E-01	2.80743E+00	-2.07171E+00
2.83238E-01	-5.13113E-01	2.80753E+00	-2.05619E+00
-3.35963E-01	-3.26009E-01	2.80762E+00	-2.04072E+00
-6.40989E-01	1.79061E-01	2.80767E+00	-2.02527E+00
-2.69535E-01	4.99405E-01	2.80771E+00	-2.00983E+00
4.06778E-01	3.47279E-01	2.80776E+00	-1.99438E+00
6.62940E-01	-1.05947E-01	2.80783E+00	-1.97894E+00
2.19436E-01	-4.29600E-01	2.80790E+00	-1.96352E+00
-4.40277E-01	-3.37219E-01	2.80798E+00	-1.94811E+00
-6.04834E-01	7.17387E-02	2.80808E+00	-1.93272E+00
-1.19789E-01	4.14075E-01	2.80820E+00	-1.91734E+00
4.63844E-01	3.68322E-01	2.80832E+00	-1.90198E+00
5.24361E-01	-2.53647E-02	2.80845E+00	-1.88662E+00
4.64254E-02	-3.84912E-01	2.80860E+00	-1.87127E+00
-4.10775E-01	-3.44854E-01	2.80879E+00	-1.85595E+00
-3.66279E-01	6.33180E-02	2.80898E+00	-1.84065E+00
7.70388E-02	4.11973E-01	2.80917E+00	-1.82538E+00
4.07576E-01	3.13803E-01	2.80936E+00	-1.81013E+00
2.93701E-01	-1.41933E-01	2.80954E+00	-1.79490E+00
-9.34848E-02	-4.55954E-01	2.80972E+00	-1.77967E+00
-3.24924E-01	-2.65178E-01	2.80989E+00	-1.76445E+00
-1.84713E-01	2.28303E-01	2.81006E+00	-1.74921E+00
1.47201E-01	4.61686E-01	2.81023E+00	-1.73397E+00
3.27434E-01	1.51146E-01	2.81041E+00	-1.71871E+00
1.94533E-01	-3.65643E-01	2.81060E+00	-1.70344E+00
-1.09220E-01	-5.02648E-01	2.81081E+00	-1.68815E+00
-2.97411E-01	-9.86453E-02	2.81104E+00	-1.67286E+00
-1.98098E-01	3.92069E-01	2.81130E+00	-1.65757E+00
1.00437E-01	4.18624E-01	2.81159E+00	-1.64228E+00
3.19828E-01	-4.11823E-02	2.81190E+00	-1.62698E+00
2.33514E-01	-4.69375E-01	2.81224E+00	-1.61170E+00
-1.05267E-01	-4.04220E-01	2.81261E+00	-1.59645E+00
-3.75637E-01	5.59671E-02	2.81297E+00	-1.58123E+00
-2.87331E-01	3.98496E-01	2.81332E+00	-1.56602E+00
