jMRUI Data Textfile
 
Filename: PE.txt
 
PointsInDataset: 2048
DatasetsInFile: 1
SamplingInterval: 5.00000E-01
ZeroOrderPhase: 0E0
BeginTime: 0E0
TransmitterFrequency: 1.27740E+08
MagneticField: 0E0
TypeOfNucleus: 0E0
NameOfPatient: 
DateOfExperiment: 
Spectrometer: Vespa-Simulation
AdditionalInfo: see 'readme' file for Vespa-Simulation output synopsis
 
  
Signal and FFT 
sig(real)	sig(imag)	fft(real)	fft(imag)
Signal 1 out of 1 in file
2.70247E+00	-2.87113E-05	1.65608E+00	-6.81752E+00
2.38201E+00	-1.13001E+00	1.64988E+00	-6.75668E+00
1.58919E+00	-1.94573E+00	1.64389E+00	-6.69697E+00
5.59323E-01	-2.26748E+00	1.63808E+00	-6.63835E+00
-4.22397E-01	-2.07001E+00	1.63246E+00	-6.58079E+00
-1.11245E+00	-1.47987E+00	1.62700E+00	-6.52426E+00
-1.38148E+00	-7.23789E-01	1.62169E+00	-6.46872E+00
-1.24486E+00	-4.79519E-02	1.61655E+00	-6.41414E+00
-8.43587E-01	3.63280E-01	1.61156E+00	-6.36051E+00
-3.84899E-01	4.42123E-01	1.60672E+00	-6.30779E+00
-6.50596E-02	2.48777E-01	1.60202E+00	-6.25596E+00
-1.53617E-03	-6.17056E-02	1.59746E+00	-6.20500E+00
-1.97105E-01	-3.03075E-01	1.59302E+00	-6.15489E+00
-5.46350E-01	-3.28508E-01	1.58871E+00	-6.10561E+00
-8.79985E-01	-8.34622E-02	1.58451E+00	-6.05712E+00
-1.02975E+00	3.76595E-01	1.58044E+00	-6.00941E+00
-8.90463E-01	9.08049E-01	1.57647E+00	-5.96247E+00
-4.57874E-01	1.33124E+00	1.57262E+00	-5.91626E+00
1.69582E-01	1.49373E+00	1.56886E+00	-5.87078E+00
8.24443E-01	1.32247E+00	1.56521E+00	-5.82601E+00
1.32622E+00	8.47706E-01	1.56166E+00	-5.78193E+00
1.54013E+00	1.91730E-01	1.55819E+00	-5.73852E+00
1.41863E+00	-4.72372E-01	1.55481E+00	-5.69577E+00
1.01279E+00	-9.76699E-01	1.55152E+00	-5.65365E+00
4.51269E-01	-1.21006E+00	1.54831E+00	-5.61216E+00
-1.04451E-01	-1.14831E+00	1.54518E+00	-5.57128E+00
-5.12368E-01	-8.54748E-01	1.54213E+00	-5.53099E+00
-6.92207E-01	-4.52394E-01	1.53916E+00	-5.49129E+00
-6.44343E-01	-7.91677E-02	1.53626E+00	-5.45215E+00
-4.40825E-01	1.58006E-01	1.53342E+00	-5.41357E+00
-1.93546E-01	2.14855E-01	1.53066E+00	-5.37554E+00
-1.19259E-02	1.17639E-01	1.52796E+00	-5.33804E+00
3.48638E-02	-5.35238E-02	1.52533E+00	-5.30105E+00
-6.13010E-02	-1.98440E-01	1.52275E+00	-5.26458E+00
-2.49539E-01	-2.34949E-01	1.52024E+00	-5.22859E+00
-4.42494E-01	-1.27998E-01	1.51779E+00	-5.19309E+00
-5.50260E-01	9.96999E-02	1.51540E+00	-5.15807E+00
-5.13248E-01	3.77888E-01	1.51306E+00	-5.12353E+00
-3.22817E-01	6.15020E-01	1.51077E+00	-5.08945E+00
-2.32821E-02	7.30712E-01	1.50852E+00	-5.05581E+00
3.04196E-01	6.82815E-01	1.50631E+00	-5.02260E+00
5.69482E-01	4.80393E-01	1.50416E+00	-4.98981E+00
7.02810E-01	1.79031E-01	1.50207E+00	-4.95744E+00
6.75937E-01	-1.38903E-01	1.50002E+00	-4.92548E+00
5.08456E-01	-3.91374E-01	1.49802E+00	-4.89394E+00
2.58320E-01	-5.21919E-01	1.49605E+00	-4.86279E+00
8.64637E-04	-5.14654E-01	1.49412E+00	-4.83203E+00
-1.95965E-01	-3.95142E-01	1.49222E+00	-4.80163E+00
-2.91655E-01	-2.17902E-01	1.49037E+00	-4.77161E+00
-2.82363E-01	-4.59482E-02	1.48857E+00	-4.74194E+00
-1.97364E-01	7.02498E-02	1.48681E+00	-4.71264E+00
-8.50764E-02	1.07321E-01	1.48508E+00	-4.68369E+00
5.59517E-03	7.29755E-02	1.48339E+00	-4.65510E+00
4.18940E-02	-8.87854E-04	1.48173E+00	-4.62684E+00
1.64677E-02	-7.24273E-02	1.48010E+00	-4.59892E+00
-5.31254E-02	-1.05894E-01	1.47849E+00	-4.57131E+00
-1.33453E-01	-8.38071E-02	1.47692E+00	-4.54403E+00
-1.88802E-01	-1.15057E-02	1.47538E+00	-4.51705E+00
-1.94214E-01	8.66927E-02	1.47387E+00	-4.49038E+00
-1.43528E-01	1.77547E-01	1.47239E+00	-4.46401E+00
-5.02099E-02	2.31071E-01	1.47094E+00	-4.43794E+00
5.86098E-02	2.30498E-01	1.46952E+00	-4.41217E+00
1.52111E-01	1.76822E-01	1.46812E+00	-4.38667E+00
2.06028E-01	8.70009E-02	1.46674E+00	-4.36146E+00
2.09635E-01	-1.28792E-02	1.46539E+00	-4.33652E+00
1.67579E-01	-9.66064E-02	1.46406E+00	-4.31184E+00
9.65491E-02	-1.45778E-01	1.46278E+00	-4.28743E+00
1.86265E-02	-1.54127E-01	1.46152E+00	-4.26328E+00
-4.60649E-02	-1.27427E-01	1.46029E+00	-4.23940E+00
-8.48510E-02	-7.96327E-02	1.45908E+00	-4.21578E+00
-9.46716E-02	-2.71880E-02	1.45789E+00	-4.19242E+00
-8.07784E-02	1.62646E-02	1.45671E+00	-4.16931E+00
-5.31434E-02	4.31077E-02	1.45553E+00	-4.14644E+00
-2.22541E-02	5.22529E-02	1.45437E+00	-4.12379E+00
4.07169E-03	4.73840E-02	1.45324E+00	-4.10136E+00
2.19951E-02	3.41809E-02	1.45213E+00	-4.07915E+00
3.11203E-02	1.78328E-02	1.45105E+00	-4.05717E+00
3.29033E-02	1.74802E-03	1.44999E+00	-4.03542E+00
2.90449E-02	-1.23653E-02	1.44895E+00	-4.01390E+00
2.06863E-02	-2.35722E-02	1.44791E+00	-3.99259E+00
8.61704E-03	-3.07633E-02	1.44688E+00	-3.97147E+00
-5.89254E-03	-3.23915E-02	1.44589E+00	-3.95054E+00
-2.03599E-02	-2.71024E-02	1.44496E+00	-3.92983E+00
-3.11398E-02	-1.49015E-02	1.44404E+00	-3.90936E+00
-3.44717E-02	1.89107E-03	1.44311E+00	-3.88911E+00
-2.81642E-02	1.86110E-02	1.44217E+00	-3.86905E+00
-1.31264E-02	2.94776E-02	1.44122E+00	-3.84917E+00
6.13185E-03	2.97644E-02	1.44029E+00	-3.82945E+00
2.25392E-02	1.80660E-02	1.43938E+00	-3.80990E+00
2.88788E-02	-2.38921E-03	1.43852E+00	-3.79053E+00
2.07762E-02	-2.41643E-02	1.43767E+00	-3.77137E+00
-9.60367E-04	-3.79038E-02	1.43682E+00	-3.75239E+00
-2.97541E-02	-3.58179E-02	1.43597E+00	-3.73358E+00
-5.49221E-02	-1.50852E-02	1.43514E+00	-3.71491E+00
-6.52445E-02	2.02174E-02	1.43435E+00	-3.69641E+00
-5.32413E-02	5.96403E-02	1.43359E+00	-3.67810E+00
-1.85670E-02	8.94049E-02	1.43284E+00	-3.65998E+00
3.08932E-02	9.71031E-02	1.43209E+00	-3.64203E+00
8.08840E-02	7.64075E-02	1.43133E+00	-3.62425E+00
1.15193E-01	3.00187E-02	1.43057E+00	-3.60662E+00
1.21161E-01	-3.03788E-02	1.42981E+00	-3.58913E+00
9.44073E-02	-8.74028E-02	1.42906E+00	-3.57178E+00
4.09489E-02	-1.23521E-01	1.42833E+00	-3.55457E+00
-2.42135E-02	-1.27014E-01	1.42763E+00	-3.53752E+00
-8.17005E-02	-9.62277E-02	1.42694E+00	-3.52061E+00
-1.14126E-01	-4.05385E-02	1.42626E+00	-3.50385E+00
-1.12025E-01	2.24884E-02	1.42560E+00	-3.48724E+00
-7.72103E-02	7.28434E-02	1.42494E+00	-3.47077E+00
-2.23405E-02	9.48413E-02	1.42429E+00	-3.45445E+00
3.33053E-02	8.25267E-02	1.42365E+00	-3.43826E+00
7.04361E-02	4.17878E-02	1.42302E+00	-3.42221E+00
7.64388E-02	-1.16284E-02	1.42239E+00	-3.40629E+00
4.98436E-02	-5.75829E-02	1.42178E+00	-3.39050E+00
9.16649E-04	-7.86244E-02	1.42118E+00	-3.37485E+00
-5.18845E-02	-6.62103E-02	1.42058E+00	-3.35932E+00
-8.83716E-02	-2.38530E-02	1.41998E+00	-3.34393E+00
-9.38032E-02	3.39393E-02	1.41940E+00	-3.32865E+00
-6.42254E-02	8.66393E-02	1.41882E+00	-3.31350E+00
-8.08781E-03	1.14843E-01	1.41825E+00	-3.29847E+00
5.64785E-02	1.07143E-01	1.41769E+00	-3.28355E+00
1.07813E-01	6.42844E-02	1.41714E+00	-3.26876E+00
1.28197E-01	-8.78923E-04	1.41659E+00	-3.25408E+00
1.10016E-01	-6.76124E-02	1.41605E+00	-3.23952E+00
5.85084E-02	-1.14315E-01	1.41552E+00	-3.22508E+00
-9.90977E-03	-1.25869E-01	1.41500E+00	-3.21074E+00
-7.31721E-02	-9.87985E-02	1.41450E+00	-3.19651E+00
-1.11001E-01	-4.24408E-02	1.41400E+00	-3.18241E+00
-1.11754E-01	2.42471E-02	1.41350E+00	-3.16842E+00
-7.62778E-02	7.91549E-02	1.41299E+00	-3.15454E+00
-1.74918E-02	1.04508E-01	1.41249E+00	-3.14075E+00
4.41621E-02	9.28174E-02	1.41200E+00	-3.12706E+00
8.77257E-02	4.92307E-02	1.41152E+00	-3.11346E+00
9.88576E-02	-1.04218E-02	1.41107E+00	-3.09998E+00
7.45779E-02	-6.52151E-02	1.41061E+00	-3.08662E+00
2.40588E-02	-9.63574E-02	1.41015E+00	-3.07335E+00
-3.47519E-02	-9.35610E-02	1.40968E+00	-3.06019E+00
-8.14469E-02	-5.83859E-02	1.40921E+00	-3.04710E+00
-1.00197E-01	-3.46717E-03	1.40876E+00	-3.03409E+00
-8.50852E-02	5.20659E-02	1.40833E+00	-3.02118E+00
-4.19194E-02	8.92547E-02	1.40791E+00	-3.00838E+00
1.39936E-02	9.58312E-02	1.40750E+00	-2.99568E+00
6.33035E-02	7.02846E-02	1.40708E+00	-2.98308E+00
8.93422E-02	2.21551E-02	1.40666E+00	-2.97057E+00
8.37888E-02	-3.14708E-02	1.40623E+00	-2.95813E+00
4.93560E-02	-7.19776E-02	1.40582E+00	-2.94578E+00
-1.38262E-03	-8.56485E-02	1.40542E+00	-2.93351E+00
-5.04835E-02	-6.82431E-02	1.40503E+00	-2.92133E+00
-8.08907E-02	-2.62710E-02	1.40464E+00	-2.90924E+00
-8.22373E-02	2.54537E-02	1.40427E+00	-2.89724E+00
-5.42363E-02	6.90275E-02	1.40389E+00	-2.88533E+00
-6.56230E-03	8.95963E-02	1.40350E+00	-2.87350E+00
4.46378E-02	8.03089E-02	1.40312E+00	-2.86175E+00
8.23521E-02	4.44206E-02	1.40275E+00	-2.85006E+00
9.43970E-02	-6.05876E-03	1.40238E+00	-2.83846E+00
7.73585E-02	-5.46297E-02	1.40203E+00	-2.82694E+00
3.74341E-02	-8.59328E-02	1.40168E+00	-2.81550E+00
-1.19716E-02	-9.07971E-02	1.40134E+00	-2.80414E+00
-5.49722E-02	-6.90220E-02	1.40100E+00	-2.79286E+00
-7.85635E-02	-2.90442E-02	1.40065E+00	-2.78167E+00
-7.67883E-02	1.52694E-02	1.40030E+00	-2.77054E+00
-5.23464E-02	4.95221E-02	1.39996E+00	-2.75948E+00
-1.52204E-02	6.35900E-02	1.39962E+00	-2.74848E+00
2.10786E-02	5.47886E-02	1.39928E+00	-2.73756E+00
4.42714E-02	2.83471E-02	1.39896E+00	-2.72670E+00
4.74085E-02	-4.81836E-03	1.39865E+00	-2.71592E+00
3.09483E-02	-3.21503E-02	1.39834E+00	-2.70522E+00
2.20977E-03	-4.38489E-02	1.39803E+00	-2.69460E+00
-2.75004E-02	-3.61147E-02	1.39772E+00	-2.68405E+00
-4.69586E-02	-1.21776E-02	1.39740E+00	-2.67355E+00
-4.88952E-02	1.91089E-02	1.39708E+00	-2.66312E+00
-3.23285E-02	4.65282E-02	1.39677E+00	-2.65274E+00
-2.66011E-03	6.04090E-02	1.39648E+00	-2.64243E+00
3.03865E-02	5.58285E-02	1.39619E+00	-2.63219E+00
5.61764E-02	3.40715E-02	1.39592E+00	-2.62202E+00
6.67152E-02	1.93502E-03	1.39563E+00	-2.61192E+00
5.91141E-02	-3.07297E-02	1.39534E+00	-2.60189E+00
3.62609E-02	-5.43587E-02	1.39504E+00	-2.59191E+00
5.54879E-03	-6.27054E-02	1.39475E+00	-2.58197E+00
-2.37688E-02	-5.45899E-02	1.39448E+00	-2.57210E+00
-4.36312E-02	-3.38809E-02	1.39422E+00	-2.56229E+00
-4.95955E-02	-7.85042E-03	1.39396E+00	-2.55256E+00
-4.18888E-02	1.54244E-02	1.39369E+00	-2.54289E+00
-2.48556E-02	2.96919E-02	1.39341E+00	-2.53328E+00
-5.13374E-03	3.22876E-02	1.39313E+00	-2.52371E+00
1.07275E-02	2.45760E-02	1.39286E+00	-2.51417E+00
1.83652E-02	1.10218E-02	1.39262E+00	-2.50470E+00
1.67531E-02	-2.64729E-03	1.39239E+00	-2.49531E+00
8.12337E-03	-1.14850E-02	1.39215E+00	-2.48599E+00
-3.17781E-03	-1.28762E-02	1.39190E+00	-2.47672E+00
-1.24067E-02	-7.13249E-03	1.39163E+00	-2.46750E+00
