jMRUI Data Textfile
 
Filename: Tau.txt
 
PointsInDataset: 2048
DatasetsInFile: 1
SamplingInterval: 5.00000E-01
ZeroOrderPhase: 0E0
BeginTime: 0E0
TransmitterFrequency: 1.27740E+08
MagneticField: 0E0
TypeOfNucleus: 0E0
NameOfPatient: 
DateOfExperiment: 
Spectrometer: Vespa-Simulation
AdditionalInfo: see 'readme' file for Vespa-Simulation output synopsis
 
  
Signal and FFT 
sig(real)	sig(imag)	fft(real)	fft(imag)
Signal 1 out of 1 in file
3.87241E+00	-4.82297E-07	2.05255E+00	-6.91365E+00
3.27356E+00	-2.00023E+00	2.05126E+00	-6.87284E+00
1.73172E+00	-3.37708E+00	2.05000E+00	-6.83248E+00
-2.79676E-01	-3.73888E+00	2.04877E+00	-6.79255E+00
-2.15864E+00	-3.00363E+00	2.04756E+00	-6.75305E+00
-3.35754E+00	-1.41622E+00	2.04638E+00	-6.71398E+00
-3.54507E+00	5.33343E-01	2.04522E+00	-6.67534E+00
-2.69870E+00	2.26301E+00	2.04408E+00	-6.63712E+00
-1.10162E+00	3.27487E+00	2.04294E+00	-6.59931E+00
7.51852E-01	3.30034E+00	2.04181E+00	-6.56189E+00
2.31098E+00	2.37150E+00	2.04070E+00	-6.52485E+00
3.13417E+00	7.99733E-01	2.03960E+00	-6.48819E+00
3.01539E+00	-9.28319E-01	2.03853E+00	-6.45190E+00
2.03464E+00	-2.30278E+00	2.03749E+00	-6.41598E+00
5.20787E-01	-2.94257E+00	2.03646E+00	-6.38044E+00
-1.05821E+00	-2.70172E+00	2.03545E+00	-6.34527E+00
-2.24101E+00	-1.70007E+00	2.03444E+00	-6.31044E+00
-2.70878E+00	-2.73165E-01	2.03345E+00	-6.27597E+00
-2.37108E+00	1.13945E+00	2.03247E+00	-6.24183E+00
-1.37858E+00	2.13040E+00	2.03151E+00	-6.20803E+00
-6.31462E-02	2.44258E+00	2.03057E+00	-6.17455E+00
1.17227E+00	2.03493E+00	2.02964E+00	-6.14141E+00
1.97744E+00	1.07943E+00	2.02873E+00	-6.10859E+00
2.15434E+00	-1.05255E-01	2.02784E+00	-6.07609E+00
1.70396E+00	-1.15901E+00	2.02697E+00	-6.04391E+00
8.10071E-01	-1.78987E+00	2.02610E+00	-6.01204E+00
-2.30171E-01	-1.85450E+00	2.02524E+00	-5.98048E+00
-1.10387E+00	-1.38770E+00	2.02439E+00	-5.94921E+00
-1.57631E+00	-5.76003E-01	2.02355E+00	-5.91823E+00
-1.55306E+00	3.11819E-01	2.02274E+00	-5.88754E+00
-1.09421E+00	1.01249E+00	2.02194E+00	-5.85714E+00
-3.80695E-01	1.34577E+00	2.02116E+00	-5.82702E+00
3.52325E-01	1.25925E+00	2.02039E+00	-5.79720E+00
8.91619E-01	8.29800E-01	2.01962E+00	-5.76765E+00
1.10718E+00	2.25598E-01	2.01886E+00	-5.73838E+00
9.81122E-01	-3.55330E-01	2.01810E+00	-5.70937E+00
5.99036E-01	-7.48638E-01	2.01736E+00	-5.68061E+00
1.10386E-01	-8.69011E-01	2.01662E+00	-5.65211E+00
-3.25784E-01	-7.25362E-01	2.01590E+00	-5.62386E+00
-5.91207E-01	-4.04614E-01	2.01520E+00	-5.59587E+00
-6.38957E-01	-3.30564E-02	2.01451E+00	-5.56813E+00
-4.97098E-01	2.69508E-01	2.01383E+00	-5.54065E+00
-2.47523E-01	4.26837E-01	2.01315E+00	-5.51342E+00
9.73950E-03	4.23635E-01	2.01246E+00	-5.48642E+00
1.92825E-01	2.99863E-01	2.01177E+00	-5.45963E+00
2.62601E-01	1.27120E-01	2.01111E+00	-5.43306E+00
2.28417E-01	-2.23767E-02	2.01047E+00	-5.40672E+00
1.35586E-01	-1.02249E-01	2.00986E+00	-5.38062E+00
4.14004E-02	-1.04823E-01	2.00925E+00	-5.35476E+00
-9.97830E-03	-5.73163E-02	2.00863E+00	-5.32914E+00
-4.13265E-03	-4.69807E-03	2.00801E+00	-5.30372E+00
4.11134E-02	1.27912E-02	2.00739E+00	-5.27850E+00
8.70450E-02	-2.19407E-02	2.00678E+00	-5.25349E+00
9.37166E-02	-9.56128E-02	2.00619E+00	-5.22867E+00
3.94587E-02	-1.70923E-01	2.00562E+00	-5.20407E+00
-6.77674E-02	-2.03402E-01	2.00506E+00	-5.17968E+00
-1.91739E-01	-1.61728E-01	2.00451E+00	-5.15550E+00
-2.81489E-01	-4.31807E-02	2.00395E+00	-5.13153E+00
-2.91754E-01	1.22070E-01	2.00339E+00	-5.10775E+00
-2.02335E-01	2.79832E-01	2.00283E+00	-5.08415E+00
-2.88209E-02	3.70883E-01	2.00227E+00	-5.06074E+00
1.79838E-01	3.53211E-01	2.00172E+00	-5.03750E+00
3.56433E-01	2.19205E-01	2.00120E+00	-5.01443E+00
4.38315E-01	1.26209E-03	2.00070E+00	-4.99156E+00
3.89827E-01	-2.36659E-01	2.00021E+00	-4.96888E+00
2.16434E-01	-4.19087E-01	1.99972E+00	-4.94641E+00
-3.48043E-02	-4.84043E-01	1.99922E+00	-4.92412E+00
-2.88862E-01	-4.04386E-01	1.99870E+00	-4.90199E+00
-4.66348E-01	-1.98285E-01	1.99818E+00	-4.88000E+00
-5.09232E-01	7.51088E-02	1.99768E+00	-4.85817E+00
-4.00182E-01	3.33617E-01	1.99721E+00	-4.83650E+00
-1.69014E-01	4.97704E-01	1.99677E+00	-4.81502E+00
1.15936E-01	5.15794E-01	1.99634E+00	-4.79372E+00
3.68947E-01	3.80799E-01	1.99590E+00	-4.77261E+00
5.13515E-01	1.32606E-01	1.99543E+00	-4.75166E+00
5.06194E-01	-1.54248E-01	1.99494E+00	-4.73085E+00
3.49908E-01	-3.93722E-01	1.99445E+00	-4.71017E+00
9.26538E-02	-5.14863E-01	1.99399E+00	-4.68961E+00
-1.87690E-01	-4.83274E-01	1.99357E+00	-4.66920E+00
-4.07606E-01	-3.11062E-01	1.99318E+00	-4.64895E+00
-5.03405E-01	-5.22353E-02	1.99280E+00	-4.62889E+00
-4.50042E-01	2.14682E-01	1.99241E+00	-4.60900E+00
-2.67582E-01	4.10921E-01	1.99200E+00	-4.58926E+00
-1.38313E-02	4.81204E-01	1.99157E+00	-4.56966E+00
2.34336E-01	4.09505E-01	1.99113E+00	-4.55017E+00
4.04586E-01	2.22364E-01	1.99071E+00	-4.53079E+00
4.50557E-01	-2.07181E-02	1.99033E+00	-4.51155E+00
3.64512E-01	-2.46400E-01	1.98999E+00	-4.49246E+00
1.77834E-01	-3.89933E-01	1.98964E+00	-4.47355E+00
-5.01567E-02	-4.13841E-01	1.98926E+00	-4.45480E+00
-2.51175E-01	-3.17622E-01	1.98885E+00	-4.43616E+00
-3.68574E-01	-1.35889E-01	1.98845E+00	-4.41761E+00
-3.73363E-01	7.38470E-02	1.98808E+00	-4.39917E+00
-2.71039E-01	2.49359E-01	1.98773E+00	-4.38088E+00
-9.78856E-02	3.42254E-01	1.98738E+00	-4.36274E+00
9.16470E-02	3.31238E-01	1.98702E+00	-4.34472E+00
2.41986E-01	2.26509E-01	1.98666E+00	-4.32680E+00
3.12725E-01	6.46566E-02	1.98633E+00	-4.30899E+00
2.89299E-01	-1.03831E-01	1.98603E+00	-4.29133E+00
1.85330E-01	-2.30255E-01	1.98573E+00	-4.27382E+00
3.65955E-02	-2.81625E-01	1.98541E+00	-4.25645E+00
-1.10995E-01	-2.49034E-01	1.98505E+00	-4.23919E+00
-2.15431E-01	-1.48352E-01	1.98468E+00	-4.22202E+00
-2.50403E-01	-1.36754E-02	1.98432E+00	-4.20493E+00
-2.11568E-01	1.13919E-01	1.98399E+00	-4.18795E+00
-1.16016E-01	1.98739E-01	1.98369E+00	-4.17109E+00
4.42789E-03	2.20251E-01	1.98338E+00	-4.15437E+00
1.13513E-01	1.77645E-01	1.98306E+00	-4.13775E+00
1.81288E-01	8.84021E-02	1.98275E+00	-4.12122E+00
1.92071E-01	-1.82558E-02	1.98247E+00	-4.10479E+00
1.47667E-01	-1.10694E-01	1.98220E+00	-4.08850E+00
6.53239E-02	-1.64005E-01	1.98193E+00	-4.07234E+00
-2.84826E-02	-1.66475E-01	1.98162E+00	-4.05629E+00
-1.06320E-01	-1.21732E-01	1.98129E+00	-4.04032E+00
-1.47613E-01	-4.63716E-02	1.98098E+00	-4.02442E+00
-1.43796E-01	3.58168E-02	1.98069E+00	-4.00861E+00
-9.96937E-02	1.01136E-01	1.98043E+00	-3.99291E+00
-3.10101E-02	1.32608E-01	1.98019E+00	-3.97734E+00
4.09627E-02	1.24118E-01	1.97992E+00	-3.96189E+00
9.57414E-02	8.12205E-02	1.97964E+00	-3.94654E+00
1.19274E-01	1.86440E-02	1.97933E+00	-3.93127E+00
1.07326E-01	-4.45487E-02	1.97903E+00	-3.91606E+00
6.58714E-02	-9.05606E-02	1.97875E+00	-3.90093E+00
8.67412E-03	-1.07699E-01	1.97850E+00	-3.88589E+00
-4.70967E-02	-9.31541E-02	1.97827E+00	-3.87097E+00
-8.58615E-02	-5.31396E-02	1.97804E+00	-3.85616E+00
-9.78090E-02	-5.58009E-04	1.97780E+00	-3.84145E+00
-8.12378E-02	4.90050E-02	1.97754E+00	-3.82683E+00
-4.25132E-02	8.17579E-02	1.97728E+00	-3.81229E+00
6.17291E-03	8.94128E-02	1.97702E+00	-3.79784E+00
5.05320E-02	7.11691E-02	1.97676E+00	-3.78346E+00
7.82303E-02	3.35260E-02	1.97650E+00	-3.76916E+00
8.22376E-02	-1.18926E-02	1.97626E+00	-3.75495E+00
6.25269E-02	-5.18281E-02	1.97602E+00	-3.74082E+00
2.57632E-02	-7.51689E-02	1.97579E+00	-3.72678E+00
-1.68539E-02	-7.59733E-02	1.97556E+00	-3.71282E+00
-5.29242E-02	-5.49305E-02	1.97534E+00	-3.69896E+00
-7.23915E-02	-1.89138E-02	1.97510E+00	-3.68518E+00
-7.03100E-02	2.12064E-02	1.97485E+00	-3.67148E+00
-4.80587E-02	5.37703E-02	1.97461E+00	-3.65784E+00
-1.27444E-02	6.96906E-02	1.97438E+00	-3.64426E+00
2.50195E-02	6.49639E-02	1.97417E+00	-3.63076E+00
5.42690E-02	4.16579E-02	1.97398E+00	-3.61737E+00
6.68551E-02	7.12599E-03	1.97377E+00	-3.60406E+00
5.97093E-02	-2.82743E-02	1.97355E+00	-3.59084E+00
3.55703E-02	-5.42857E-02	1.97332E+00	-3.57768E+00
2.01102E-03	-6.37025E-02	1.97310E+00	-3.56457E+00
-3.09173E-02	-5.43840E-02	1.97289E+00	-3.55154E+00
-5.36958E-02	-2.97095E-02	1.97269E+00	-3.53858E+00
-6.01000E-02	2.59345E-03	1.97249E+00	-3.52570E+00
-4.89069E-02	3.28607E-02	1.97229E+00	-3.51290E+00
-2.40752E-02	5.23926E-02	1.97209E+00	-3.50017E+00
6.62220E-03	5.59773E-02	1.97190E+00	-3.48751E+00
3.40197E-02	4.32730E-02	1.97171E+00	-3.47492E+00
5.03213E-02	1.87148E-02	1.97152E+00	-3.46240E+00
5.13345E-02	-1.00025E-02	1.97132E+00	-3.44996E+00
3.75402E-02	-3.43417E-02	1.97112E+00	-3.43757E+00
1.37242E-02	-4.74818E-02	1.97093E+00	-3.42524E+00
-1.26547E-02	-4.62423E-02	1.97075E+00	-3.41297E+00
-3.38078E-02	-3.18276E-02	1.97059E+00	-3.40079E+00
-4.39413E-02	-9.21631E-03	1.97043E+00	-3.38869E+00
-4.08352E-02	1.45253E-02	1.97025E+00	-3.37667E+00
-2.62821E-02	3.24639E-02	1.97005E+00	-3.36470E+00
-5.29139E-03	3.98344E-02	1.96985E+00	-3.35277E+00
1.56106E-02	3.52942E-02	1.96967E+00	-3.34090E+00
3.04134E-02	2.10702E-02	1.96950E+00	-3.32909E+00
3.53516E-02	2.03262E-03	1.96933E+00	-3.31735E+00
2.98340E-02	-1.59537E-02	1.96917E+00	-3.30569E+00
1.63485E-02	-2.78230E-02	1.96900E+00	-3.29409E+00
-5.30075E-04	-3.07292E-02	1.96883E+00	-3.28255E+00
-1.56674E-02	-2.46741E-02	1.96864E+00	-3.27107E+00
-2.49173E-02	-1.22387E-02	1.96846E+00	-3.25964E+00
-2.62279E-02	2.41794E-03	1.96828E+00	-3.24825E+00
-2.00233E-02	1.49197E-02	1.96812E+00	-3.23692E+00
-8.81942E-03	2.19574E-02	1.96796E+00	-3.22566E+00
3.71730E-03	2.21119E-02	1.96781E+00	-3.21446E+00
1.39372E-02	1.60503E-02	1.96765E+00	-3.20333E+00
1.92290E-02	6.10147E-03	1.96749E+00	-3.19225E+00
1.86245E-02	-4.58213E-03	1.96732E+00	-3.18122E+00
1.28710E-02	-1.29830E-02	1.96715E+00	-3.17024E+00
4.03021E-03	-1.70149E-02	1.96700E+00	-3.15931E+00
-5.21806E-03	-1.59671E-02	1.96686E+00	-3.14843E+00
-1.23416E-02	-1.05319E-02	1.96672E+00	-3.13762E+00
-1.55741E-02	-2.48064E-03	1.96658E+00	-3.12688E+00
-1.42781E-02	5.87806E-03	1.96644E+00	-3.11619E+00
-9.00017E-03	1.22983E-02	1.96629E+00	-3.10555E+00
-1.26195E-03	1.51192E-02	1.96614E+00	-3.09495E+00
6.83699E-03	1.36204E-02	1.96599E+00	-3.08441E+00
1.31116E-02	8.16817E-03	1.96585E+00	-3.07392E+00
1.57966E-02	1.36603E-04	1.96571E+00	-3.06349E+00
1.39735E-02	-8.37318E-03	1.96557E+00	-3.05311E+00
