jMRUI Data Textfile
 
Filename: 2HG.txt
 
PointsInDataset: 2048
DatasetsInFile: 1
SamplingInterval: 5.00000E-01
ZeroOrderPhase: 0E0
BeginTime: 0E0
TransmitterFrequency: 1.27740E+08
MagneticField: 0E0
TypeOfNucleus: 0E0
NameOfPatient: 
DateOfExperiment: 
Spectrometer: Vespa-Simulation
AdditionalInfo: see 'readme' file for Vespa-Simulation output synopsis
 
  
Signal and FFT 
sig(real)	sig(imag)	fft(real)	fft(imag)
Signal 1 out of 1 in file
3.48545E+00	-2.66156E-01	1.77891E+00	-5.21934E+00
1.82599E+00	-2.67049E+00	1.77420E+00	-5.18077E+00
-9.40669E-01	-2.54121E+00	1.76967E+00	-5.14288E+00
-2.11539E+00	-2.65202E-01	1.76531E+00	-5.10567E+00
-7.46493E-01	1.68280E+00	1.76111E+00	-5.06911E+00
1.52015E+00	1.33586E+00	1.75706E+00	-5.03319E+00
2.25667E+00	-8.36648E-01	1.75316E+00	-4.99788E+00
7.23908E-01	-2.57478E+00	1.74940E+00	-4.96316E+00
-1.53587E+00	-2.20357E+00	1.74577E+00	-4.92902E+00
-2.41351E+00	-2.15876E-01	1.74226E+00	-4.89544E+00
-1.32882E+00	1.43002E+00	1.73889E+00	-4.86240E+00
3.98020E-01	1.35735E+00	1.73563E+00	-4.82990E+00
1.05483E+00	-1.38191E-03	1.73249E+00	-4.79791E+00
2.12138E-01	-1.07950E+00	1.72946E+00	-4.76642E+00
-1.07423E+00	-8.28342E-01	1.72654E+00	-4.73543E+00
-1.49555E+00	3.87599E-01	1.72371E+00	-4.70491E+00
-7.44416E-01	1.37327E+00	1.72097E+00	-4.67485E+00
3.92066E-01	1.34449E+00	1.71833E+00	-4.64524E+00
9.56307E-01	5.42879E-01	1.71578E+00	-4.61607E+00
6.93339E-01	-2.05876E-01	1.71332E+00	-4.58732E+00
9.37983E-02	-3.42502E-01	1.71095E+00	-4.55900E+00
-2.19350E-01	2.93683E-02	1.70865E+00	-4.53108E+00
-4.03966E-02	4.20693E-01	1.70643E+00	-4.50355E+00
3.83224E-01	4.64287E-01	1.70428E+00	-4.47642E+00
6.83623E-01	1.53837E-01	1.70220E+00	-4.44966E+00
6.70277E-01	-2.72194E-01	1.70019E+00	-4.42327E+00
3.88505E-01	-5.62808E-01	1.69825E+00	-4.39723E+00
1.92194E-02	-5.93476E-01	1.69638E+00	-4.37155E+00
-2.38872E-01	-3.93876E-01	1.69456E+00	-4.34621E+00
-2.65014E-01	-1.20166E-01	1.69281E+00	-4.32120E+00
-9.20918E-02	2.63081E-02	1.69111E+00	-4.29653E+00
9.29214E-02	-6.20799E-02	1.68947E+00	-4.27217E+00
8.01347E-02	-2.91811E-01	1.68787E+00	-4.24812E+00
-1.72964E-01	-4.21635E-01	1.68633E+00	-4.22438E+00
-4.76070E-01	-2.74237E-01	1.68484E+00	-4.20093E+00
-5.64455E-01	8.23823E-02	1.68340E+00	-4.17777E+00
-3.50381E-01	3.79887E-01	1.68201E+00	-4.15489E+00
-1.56870E-02	3.98153E-01	1.68067E+00	-4.13230E+00
1.59463E-01	1.74787E-01	1.67937E+00	-4.10999E+00
6.49379E-02	-3.82396E-02	1.67811E+00	-4.08794E+00
-1.44157E-01	-2.64371E-02	1.67688E+00	-4.06615E+00
-2.15270E-01	1.83999E-01	1.67570E+00	-4.04462E+00
-4.98218E-02	3.70229E-01	1.67456E+00	-4.02334E+00
2.14648E-01	3.43493E-01	1.67345E+00	-4.00230E+00
3.56920E-01	1.25167E-01	1.67237E+00	-3.98150E+00
2.87305E-01	-9.65532E-02	1.67134E+00	-3.96094E+00
1.11435E-01	-1.61377E-01	1.67033E+00	-3.94061E+00
2.61516E-03	-7.69873E-02	1.66936E+00	-3.92050E+00
3.27031E-02	1.96993E-02	1.66842E+00	-3.90061E+00
1.27477E-01	1.34374E-02	1.66752E+00	-3.88094E+00
1.65408E-01	-8.80269E-02	1.66665E+00	-3.86149E+00
9.94474E-02	-1.86867E-01	1.66580E+00	-3.84225E+00
-1.61392E-02	-2.03441E-01	1.66498E+00	-3.82321E+00
-9.73522E-02	-1.42754E-01	1.66418E+00	-3.80438E+00
-1.10859E-01	-6.78543E-02	1.66341E+00	-3.78574E+00
-8.68450E-02	-2.84642E-02	1.66266E+00	-3.76729E+00
-7.08697E-02	-2.29920E-02	1.66194E+00	-3.74902E+00
-7.72098E-02	-1.97703E-02	1.66125E+00	-3.73094E+00
-8.76267E-02	5.03194E-04	1.66058E+00	-3.71305E+00
-8.28238E-02	2.91990E-02	1.65994E+00	-3.69534E+00
-6.45815E-02	4.88408E-02	1.65932E+00	-3.67781E+00
-4.73687E-02	5.65202E-02	1.65872E+00	-3.66045E+00
-3.63783E-02	6.38152E-02	1.65814E+00	-3.64326E+00
-2.09814E-02	7.74133E-02	1.65758E+00	-3.62625E+00
9.40434E-03	8.66539E-02	1.65703E+00	-3.60939E+00
4.73705E-02	7.41062E-02	1.65651E+00	-3.59269E+00
7.01067E-02	3.75218E-02	1.65600E+00	-3.57616E+00
6.17306E-02	-2.27597E-03	1.65551E+00	-3.55978E+00
3.19691E-02	-1.85363E-02	1.65504E+00	-3.54355E+00
1.00029E-02	-4.78871E-03	1.65459E+00	-3.52747E+00
1.73577E-02	1.68608E-02	1.65415E+00	-3.51154E+00
4.59561E-02	1.56282E-02	1.65373E+00	-3.49575E+00
6.40012E-02	-1.77308E-02	1.65332E+00	-3.48011E+00
4.58302E-02	-5.98146E-02	1.65293E+00	-3.46461E+00
-2.16991E-03	-7.47409E-02	1.65256E+00	-3.44924E+00
-4.50816E-02	-4.77185E-02	1.65220E+00	-3.43402E+00
-5.04733E-02	-2.51550E-04	1.65186E+00	-3.41893E+00
-1.83594E-02	2.83242E-02	1.65153E+00	-3.40397E+00
1.83736E-02	1.64982E-02	1.65121E+00	-3.38914E+00
2.41328E-02	-1.97974E-02	1.65091E+00	-3.37444E+00
-6.54374E-03	-4.22838E-02	1.65062E+00	-3.35987E+00
-4.42544E-02	-2.61776E-02	1.65034E+00	-3.34542E+00
-5.24635E-02	1.67967E-02	1.65007E+00	-3.33109E+00
-2.15248E-02	4.95843E-02	1.64981E+00	-3.31688E+00
2.27975E-02	4.42026E-02	1.64957E+00	-3.30280E+00
4.35428E-02	6.87526E-03	1.64933E+00	-3.28882E+00
2.60428E-02	-2.89213E-02	1.64911E+00	-3.27497E+00
-1.04152E-02	-3.36429E-02	1.64889E+00	-3.26122E+00
-3.20440E-02	-7.32381E-03	1.64869E+00	-3.24759E+00
-2.13428E-02	2.29882E-02	1.64849E+00	-3.23406E+00
9.14385E-03	2.92881E-02	1.64831E+00	-3.22064E+00
3.05046E-02	6.95377E-03	1.64814E+00	-3.20733E+00
2.37034E-02	-2.34703E-02	1.64797E+00	-3.19412E+00
-5.34940E-03	-3.57801E-02	1.64782E+00	-3.18102E+00
-3.28277E-02	-2.00614E-02	1.64767E+00	-3.16802E+00
-3.75117E-02	1.07784E-02	1.64753E+00	-3.15512E+00
-1.71567E-02	3.28472E-02	1.64741E+00	-3.14232E+00
1.09694E-02	3.04364E-02	1.64728E+00	-3.12962E+00
2.43195E-02	7.89377E-03	1.64717E+00	-3.11702E+00
1.30615E-02	-1.40694E-02	1.64706E+00	-3.10451E+00
-1.15131E-02	-1.50746E-02	1.64696E+00	-3.09209E+00
-2.54500E-02	7.35230E-03	1.64686E+00	-3.07977E+00
-1.24665E-02	3.39343E-02	1.64678E+00	-3.06753E+00
2.01108E-02	3.90579E-02	1.64670E+00	-3.05538E+00
4.54336E-02	1.42498E-02	1.64663E+00	-3.04333E+00
4.06292E-02	-2.16918E-02	1.64656E+00	-3.03135E+00
9.38674E-03	-3.81027E-02	1.64651E+00	-3.01947E+00
-1.93264E-02	-2.14430E-02	1.64646E+00	-3.00767E+00
-1.81254E-02	1.00012E-02	1.64641E+00	-2.99595E+00
1.11537E-02	2.24180E-02	1.64638E+00	-2.98432E+00
3.74907E-02	-1.15903E-04	1.64635E+00	-2.97277E+00
3.05837E-02	-3.82251E-02	1.64632E+00	-2.96131E+00
-8.15652E-03	-5.48719E-02	1.64630E+00	-2.94992E+00
-4.53087E-02	-3.19198E-02	1.64628E+00	-2.93861E+00
-4.75588E-02	1.08779E-02	1.64627E+00	-2.92738E+00
-1.47771E-02	3.43550E-02	1.64627E+00	-2.91622E+00
1.92268E-02	1.82745E-02	1.64626E+00	-2.90514E+00
1.96714E-02	-1.84407E-02	1.64627E+00	-2.89414E+00
-1.47980E-02	-3.59078E-02	1.64628E+00	-2.88321E+00
-5.01383E-02	-1.23660E-02	1.64629E+00	-2.87235E+00
-4.95742E-02	3.39114E-02	1.64631E+00	-2.86156E+00
-9.46374E-03	6.13007E-02	1.64634E+00	-2.85084E+00
3.61804E-02	4.43851E-02	1.64637E+00	-2.84020E+00
4.72659E-02	-1.20734E-03	1.64640E+00	-2.82962E+00
1.57785E-02	-3.26824E-02	1.64644E+00	-2.81911E+00
-2.56974E-02	-2.03417E-02	1.64648E+00	-2.80867E+00
-3.40953E-02	2.33908E-02	1.64652E+00	-2.79830E+00
2.73368E-03	5.43369E-02	1.64657E+00	-2.78799E+00
5.26230E-02	3.81339E-02	1.64663E+00	-2.77775E+00
6.80689E-02	-1.55764E-02	1.64669E+00	-2.76758E+00
3.17850E-02	-6.00161E-02	1.64675E+00	-2.75746E+00
-2.47515E-02	-5.48539E-02	1.64681E+00	-2.74742E+00
-4.96103E-02	-5.89686E-03	1.64688E+00	-2.73743E+00
-2.03529E-02	3.86338E-02	1.64695E+00	-2.72750E+00
3.28065E-02	3.39409E-02	1.64702E+00	-2.71764E+00
5.50825E-02	-1.69459E-02	1.64710E+00	-2.70784E+00
2.06844E-02	-6.46604E-02	1.64718E+00	-2.69809E+00
-4.07898E-02	-6.11491E-02	1.64726E+00	-2.68840E+00
-7.24055E-02	-7.13962E-03	1.64734E+00	-2.67877E+00
-4.54036E-02	4.80405E-02	1.64743E+00	-2.66919E+00
1.28625E-02	5.46073E-02	1.64752E+00	-2.65967E+00
4.63561E-02	1.04899E-02	1.64762E+00	-2.65021E+00
2.51948E-02	-3.81520E-02	1.64773E+00	-2.64080E+00
-2.68326E-02	-4.32501E-02	1.64784E+00	-2.63146E+00
-5.78233E-02	-7.26112E-04	1.64794E+00	-2.62217E+00
-3.85519E-02	4.85345E-02	1.64805E+00	-2.61294E+00
1.21528E-02	6.01882E-02	1.64815E+00	-2.60376E+00
4.91134E-02	2.71706E-02	1.64825E+00	-2.59462E+00
4.40095E-02	-1.82934E-02	1.64836E+00	-2.58554E+00
7.58339E-03	-3.79238E-02	1.64848E+00	-2.57650E+00
-2.55276E-02	-2.04241E-02	1.64859E+00	-2.56751E+00
-2.89589E-02	1.41767E-02	1.64872E+00	-2.55858E+00
-3.30420E-03	3.58872E-02	1.64884E+00	-2.54970E+00
2.95282E-02	2.83259E-02	1.64896E+00	-2.54087E+00
4.47599E-02	-2.70556E-03	1.64909E+00	-2.53208E+00
3.05692E-02	-3.56523E-02	1.64922E+00	-2.52335E+00
-5.10488E-03	-4.68208E-02	1.64935E+00	-2.51466E+00
-3.77910E-02	-2.55628E-02	1.64949E+00	-2.50601E+00
-4.10443E-02	1.50702E-02	1.64963E+00	-2.49742E+00
-8.11714E-03	4.26678E-02	1.64977E+00	-2.48888E+00
3.59609E-02	2.96313E-02	1.64991E+00	-2.48038E+00
4.98051E-02	-1.83742E-02	1.65005E+00	-2.47192E+00
1.34876E-02	-5.93593E-02	1.65019E+00	-2.46351E+00
-4.55920E-02	-4.99885E-02	1.65033E+00	-2.45514E+00
-7.14068E-02	9.13022E-03	1.65048E+00	-2.44682E+00
-3.30864E-02	6.58081E-02	1.65063E+00	-2.43854E+00
3.83393E-02	6.29574E-02	1.65078E+00	-2.43030E+00
7.39584E-02	-1.89956E-03	1.65093E+00	-2.42211E+00
3.49026E-02	-6.74881E-02	1.65108E+00	-2.41396E+00
-4.38512E-02	-6.66343E-02	1.65123E+00	-2.40585E+00
-8.38976E-02	3.99696E-03	1.65138E+00	-2.39777E+00
-4.21263E-02	7.60959E-02	1.65154E+00	-2.38974E+00
4.26778E-02	7.67236E-02	1.65170E+00	-2.38175E+00
8.66021E-02	3.40109E-03	1.65186E+00	-2.37379E+00
4.55253E-02	-7.15064E-02	1.65203E+00	-2.36589E+00
-3.93666E-02	-7.35799E-02	1.65220E+00	-2.35802E+00
-8.32699E-02	-1.78879E-03	1.65237E+00	-2.35020E+00
-4.36925E-02	7.13546E-02	1.65254E+00	-2.34241E+00
3.80642E-02	7.41082E-02	1.65270E+00	-2.33466E+00
8.09589E-02	6.73098E-03	1.65287E+00	-2.32695E+00
4.60106E-02	-6.22283E-02	1.65303E+00	-2.31928E+00
-2.80881E-02	-6.70502E-02	1.65320E+00	-2.31163E+00
-6.80503E-02	-8.35392E-03	1.65337E+00	-2.30403E+00
-3.92231E-02	5.30210E-02	1.65354E+00	-2.29646E+00
2.51578E-02	5.95354E-02	1.65371E+00	-2.28893E+00
6.24642E-02	1.05878E-02	1.65388E+00	-2.28143E+00
4.21672E-02	-4.38009E-02	1.65406E+00	-2.27396E+00
-1.06785E-02	-5.53398E-02	1.65424E+00	-2.26653E+00
-4.61024E-02	-2.04030E-02	1.65443E+00	-2.25914E+00
-3.70733E-02	2.40776E-02	1.65462E+00	-2.25178E+00
1.42578E-03	3.93748E-02	1.65481E+00	-2.24447E+00
