jMRUI Data Textfile
 
Filename: Ala.txt
 
PointsInDataset: 2048
DatasetsInFile: 1
SamplingInterval: 5.00000E-01
ZeroOrderPhase: 0E0
BeginTime: 0E0
TransmitterFrequency: 1.27740E+08
MagneticField: 0E0
TypeOfNucleus: 0E0
NameOfPatient: 
DateOfExperiment: 
Spectrometer: Vespa-Simulation
AdditionalInfo: see 'readme' file for Vespa-Simulation output synopsis
 
  
Signal and FFT 
sig(real)	sig(imag)	fft(real)	fft(imag)
Signal 1 out of 1 in file
2.95103E+00	1.28406E-02	1.61704E+00	-3.02179E+00
1.15170E+00	-2.46837E+00	1.61498E+00	-3.00479E+00
-1.58634E+00	-1.58900E+00	1.61297E+00	-2.98800E+00
-1.47614E+00	1.05022E+00	1.61101E+00	-2.97142E+00
9.78970E-01	1.49241E+00	1.60910E+00	-2.95503E+00
1.94103E+00	-8.11918E-01	1.60723E+00	-2.93883E+00
-9.87570E-02	-2.38993E+00	1.60542E+00	-2.92282E+00
-2.25654E+00	-9.05948E-01	1.60364E+00	-2.90701E+00
-1.56169E+00	1.54478E+00	1.60191E+00	-2.89137E+00
8.16906E-01	1.61445E+00	1.60022E+00	-2.87592E+00
1.44235E+00	-4.93790E-01	1.59857E+00	-2.86064E+00
-3.92307E-01	-1.51858E+00	1.59696E+00	-2.84553E+00
-1.81458E+00	4.34258E-02	1.59539E+00	-2.83059E+00
-6.66739E-01	1.87907E+00	1.59385E+00	-2.81583E+00
1.43850E+00	1.34747E+00	1.59235E+00	-2.80122E+00
1.58924E+00	-7.38875E-01	1.59089E+00	-2.78678E+00
-2.31406E-01	-1.43867E+00	1.58945E+00	-2.77249E+00
-1.28511E+00	4.03201E-02	1.58803E+00	-2.75836E+00
-1.21140E-01	1.35001E+00	1.58665E+00	-2.74437E+00
1.43732E+00	5.27256E-01	1.58530E+00	-2.73053E+00
1.07386E+00	-1.22475E+00	1.58397E+00	-2.71683E+00
-6.89715E-01	-1.41271E+00	1.58267E+00	-2.70327E+00
-1.37800E+00	1.36806E-01	1.58140E+00	-2.68984E+00
-1.71784E-01	1.15952E+00	1.58016E+00	-2.67656E+00
1.03622E+00	2.98119E-01	1.57895E+00	-2.66341E+00
4.90974E-01	-1.03603E+00	1.57775E+00	-2.65038E+00
-9.41296E-01	-8.39003E-01	1.57659E+00	-2.63748E+00
-1.15811E+00	5.97721E-01	1.57545E+00	-2.62471E+00
1.19816E-01	1.22767E+00	1.57433E+00	-2.61206E+00
1.05458E+00	2.48026E-01	1.57324E+00	-2.59954E+00
4.13458E-01	-8.42537E-01	1.57217E+00	-2.58713E+00
-7.33402E-01	-5.07064E-01	1.57113E+00	-2.57485E+00
-6.80054E-01	6.56633E-01	1.57010E+00	-2.56269E+00
4.55884E-01	9.03788E-01	1.56908E+00	-2.55064E+00
1.01401E+00	-1.08617E-01	1.56809E+00	-2.53870E+00
2.38620E-01	-9.20412E-01	1.56712E+00	-2.52687E+00
-7.10301E-01	-4.43255E-01	1.56616E+00	-2.51515E+00
-5.18205E-01	5.32385E-01	1.56521E+00	-2.50354E+00
4.24291E-01	5.82827E-01	1.56428E+00	-2.49202E+00
6.95980E-01	-2.96672E-01	1.56336E+00	-2.48060E+00
-7.35719E-02	-7.86285E-01	1.56246E+00	-2.46928E+00
-7.52253E-01	-1.99162E-01	1.56158E+00	-2.45804E+00
-4.05699E-01	5.91940E-01	1.56073E+00	-2.44690E+00
4.02188E-01	4.92220E-01	1.55991E+00	-2.43586E+00
5.12342E-01	-2.62864E-01	1.55911E+00	-2.42492E+00
-1.57662E-01	-5.42322E-01	1.55832E+00	-2.41409E+00
-5.83916E-01	2.05938E-02	1.55754E+00	-2.40336E+00
-1.63981E-01	5.72587E-01	1.55677E+00	-2.39273E+00
4.67934E-01	3.35393E-01	1.55600E+00	-2.38218E+00
4.27531E-01	-3.07214E-01	1.55523E+00	-2.37171E+00
-1.61770E-01	-4.40343E-01	1.55447E+00	-2.36131E+00
-4.26977E-01	5.95688E-02	1.55373E+00	-2.35100E+00
-3.02930E-02	4.22619E-01	1.55301E+00	-2.34077E+00
4.07270E-01	1.41672E-01	1.55231E+00	-2.33061E+00
2.60637E-01	-3.42000E-01	1.55162E+00	-2.32054E+00
-2.25315E-01	-3.40517E-01	1.55094E+00	-2.31055E+00
-3.56588E-01	9.91407E-02	1.55027E+00	-2.30064E+00
2.94447E-03	3.30421E-01	1.54961E+00	-2.29081E+00
2.98752E-01	6.33749E-02	1.54896E+00	-2.28105E+00
1.25666E-01	-2.70938E-01	1.54833E+00	-2.27136E+00
-2.26583E-01	-1.94471E-01	1.54771E+00	-2.26175E+00
-2.49526E-01	1.50316E-01	1.54710E+00	-2.25222E+00
5.68018E-02	2.65189E-01	1.54650E+00	-2.24276E+00
2.41177E-01	2.30922E-02	1.54591E+00	-2.23338E+00
7.41678E-02	-2.01283E-01	1.54532E+00	-2.22407E+00
-1.65398E-01	-1.07076E-01	1.54474E+00	-2.21482E+00
-1.37929E-01	1.31108E-01	1.54416E+00	-2.20564E+00
8.49461E-02	1.65796E-01	1.54359E+00	-2.19652E+00
1.75104E-01	-2.56048E-02	1.54303E+00	-2.18747E+00
3.05805E-02	-1.56905E-01	1.54248E+00	-2.17847E+00
-1.21046E-01	-6.65979E-02	1.54193E+00	-2.16954E+00
-8.15858E-02	8.55486E-02	1.54140E+00	-2.16067E+00
5.82304E-02	8.76451E-02	1.54088E+00	-2.15186E+00
9.30070E-02	-3.29914E-02	1.54037E+00	-2.14311E+00
-2.95330E-03	-9.32364E-02	1.53987E+00	-2.13442E+00
-7.98030E-02	-2.76254E-02	1.53938E+00	-2.12580E+00
-4.70813E-02	5.34388E-02	1.53890E+00	-2.11724E+00
2.53768E-02	4.95754E-02	1.53843E+00	-2.10874E+00
4.09483E-02	-6.03141E-03	1.53795E+00	-2.10030E+00
4.18586E-03	-3.09823E-02	1.53749E+00	-2.09191E+00
-2.28279E-02	-1.14954E-02	1.53703E+00	-2.08358E+00
-1.86197E-02	1.23608E-02	1.53657E+00	-2.07531E+00
-3.27544E-03	2.10360E-02	1.53612E+00	-2.06709E+00
1.33512E-02	1.96598E-02	1.53568E+00	-2.05892E+00
2.88208E-02	3.18747E-03	1.53524E+00	-2.05081E+00
2.13567E-02	-2.72238E-02	1.53480E+00	-2.04275E+00
-1.80748E-02	-3.50879E-02	1.53436E+00	-2.03474E+00
-4.38785E-02	6.15336E-03	1.53394E+00	-2.02677E+00
-7.45869E-03	4.99528E-02	1.53352E+00	-2.01885E+00
5.30727E-02	2.45539E-02	1.53311E+00	-2.01098E+00
4.51298E-02	-4.98260E-02	1.53272E+00	-2.00316E+00
-3.74964E-02	-6.54113E-02	1.53233E+00	-1.99539E+00
-8.05301E-02	1.70215E-02	1.53194E+00	-1.98768E+00
-8.19302E-03	8.78016E-02	1.53156E+00	-1.98001E+00
8.68525E-02	3.50210E-02	1.53118E+00	-1.97239E+00
6.13068E-02	-7.78447E-02	1.53081E+00	-1.96482E+00
-6.09382E-02	-8.48460E-02	1.53044E+00	-1.95729E+00
-1.03232E-01	3.71387E-02	1.53008E+00	-1.94982E+00
8.23594E-03	1.14844E-01	1.52972E+00	-1.94239E+00
1.18731E-01	2.43433E-02	1.52936E+00	-1.93500E+00
5.93449E-02	-1.13148E-01	1.52899E+00	-1.92766E+00
-9.56924E-02	-9.35181E-02	1.52863E+00	-1.92035E+00
-1.21006E-01	6.63654E-02	1.52827E+00	-1.91308E+00
2.97979E-02	1.36852E-01	1.52792E+00	-1.90584E+00
1.41139E-01	7.69083E-03	1.52758E+00	-1.89865E+00
4.36940E-02	-1.37639E-01	1.52726E+00	-1.89149E+00
-1.27472E-01	-8.04419E-02	1.52693E+00	-1.88438E+00
-1.18380E-01	1.06061E-01	1.52662E+00	-1.87731E+00
6.89891E-02	1.50519E-01	1.52631E+00	-1.87029E+00
1.66525E-01	-2.03687E-02	1.52600E+00	-1.86330E+00
2.79453E-02	-1.63226E-01	1.52570E+00	-1.85635E+00
-1.48163E-01	-6.74473E-02	1.52541E+00	-1.84945E+00
-1.00894E-01	1.29940E-01	1.52513E+00	-1.84259E+00
1.06698E-01	1.35706E-01	1.52484E+00	-1.83578E+00
1.69944E-01	-6.85743E-02	1.52455E+00	-1.82901E+00
-1.28642E-02	-1.89615E-01	1.52426E+00	-1.82227E+00
-1.83110E-01	-4.73314E-02	1.52395E+00	-1.81558E+00
-9.42053E-02	1.55649E-01	1.52365E+00	-1.80891E+00
1.24009E-01	1.23979E-01	1.52335E+00	-1.80227E+00
1.48931E-01	-9.62016E-02	1.52305E+00	-1.79565E+00
-6.18873E-02	-1.78303E-01	1.52276E+00	-1.78907E+00
-2.01841E-01	7.73433E-03	1.52248E+00	-1.78251E+00
-6.05687E-02	1.98960E-01	1.52220E+00	-1.77599E+00
1.64142E-01	1.18980E-01	1.52193E+00	-1.76951E+00
1.50411E-01	-1.16128E-01	1.52167E+00	-1.76305E+00
-7.68666E-02	-1.63444E-01	1.52142E+00	-1.75662E+00
-1.79091E-01	4.54042E-02	1.52118E+00	-1.75024E+00
1.10524E-03	2.00632E-01	1.52095E+00	-1.74389E+00
2.05703E-01	6.58139E-02	1.52073E+00	-1.73760E+00
1.35229E-01	-1.73282E-01	1.52050E+00	-1.73136E+00
-1.12577E-01	-1.76266E-01	1.52024E+00	-1.72515E+00
-1.82763E-01	5.53782E-02	1.51997E+00	-1.71897E+00
1.91084E-02	1.79349E-01	1.51967E+00	-1.71279E+00
1.88315E-01	1.28769E-02	1.51939E+00	-1.70661E+00
6.66912E-02	-1.98527E-01	1.51914E+00	-1.70043E+00
-1.77816E-01	-1.38902E-01	1.51891E+00	-1.69429E+00
-1.94126E-01	1.15385E-01	1.51872E+00	-1.68819E+00
4.00437E-02	2.05164E-01	1.51855E+00	-1.68214E+00
1.85716E-01	1.14208E-02	1.51837E+00	-1.67617E+00
3.75034E-02	-1.72450E-01	1.51816E+00	-1.67024E+00
-1.77204E-01	-7.07997E-02	1.51793E+00	-1.66433E+00
-1.31996E-01	1.70608E-01	1.51768E+00	-1.65843E+00
1.20249E-01	1.97359E-01	1.51743E+00	-1.65254E+00
2.23449E-01	-3.60065E-02	1.51719E+00	-1.64666E+00
3.67450E-02	-1.99831E-01	1.51696E+00	-1.64079E+00
-1.62382E-01	-6.99187E-02	1.51676E+00	-1.63496E+00
-8.50945E-02	1.48085E-01	1.51657E+00	-1.62916E+00
1.47812E-01	1.22490E-01	1.51639E+00	-1.62339E+00
1.84846E-01	-1.18571E-01	1.51621E+00	-1.61767E+00
-4.14882E-02	-2.28657E-01	1.51602E+00	-1.61198E+00
-2.16323E-01	-4.84718E-02	1.51582E+00	-1.60632E+00
-1.01175E-01	1.63833E-01	1.51562E+00	-1.60067E+00
1.21891E-01	1.10857E-01	1.51543E+00	-1.59505E+00
1.20372E-01	-1.12638E-01	1.51523E+00	-1.58945E+00
-1.02633E-01	-1.62979E-01	1.51505E+00	-1.58388E+00
-2.15680E-01	4.80669E-02	1.51486E+00	-1.57834E+00
-4.44946E-02	2.25159E-01	1.51467E+00	-1.57282E+00
1.74983E-01	1.20451E-01	1.51448E+00	-1.56734E+00
1.41675E-01	-1.08241E-01	1.51428E+00	-1.56188E+00
-7.50787E-02	-1.31723E-01	1.51408E+00	-1.55643E+00
-1.43084E-01	7.09894E-02	1.51387E+00	-1.55100E+00
4.50887E-02	1.87274E-01	1.51366E+00	-1.54557E+00
2.17359E-01	3.09087E-02	1.51347E+00	-1.54017E+00
1.21173E-01	-1.86768E-01	1.51329E+00	-1.53477E+00
-1.10065E-01	-1.66127E-01	1.51313E+00	-1.52941E+00
-1.54572E-01	4.72945E-02	1.51298E+00	-1.52408E+00
3.05146E-02	1.35509E-01	1.51283E+00	-1.51878E+00
1.53660E-01	-2.59648E-02	1.51267E+00	-1.51352E+00
1.92807E-02	-1.90656E-01	1.51251E+00	-1.50828E+00
-1.87681E-01	-1.05153E-01	1.51235E+00	-1.50306E+00
-1.73775E-01	1.21570E-01	1.51219E+00	-1.49786E+00
3.71468E-02	1.79288E-01	1.51202E+00	-1.49269E+00
1.43788E-01	6.41304E-03	1.51185E+00	-1.48753E+00
7.50210E-03	-1.27650E-01	1.51168E+00	-1.48239E+00
-1.51634E-01	-2.04529E-02	1.51151E+00	-1.47727E+00
-8.22381E-02	1.70286E-01	1.51134E+00	-1.47216E+00
1.31059E-01	1.61106E-01	1.51117E+00	-1.46707E+00
1.93455E-01	-4.38537E-02	1.51102E+00	-1.46199E+00
2.81850E-02	-1.62423E-01	1.51087E+00	-1.45695E+00
-1.18007E-01	-4.54379E-02	1.51073E+00	-1.45193E+00
-3.85035E-02	1.12875E-01	1.51057E+00	-1.44693E+00
1.35715E-01	6.53532E-02	1.51042E+00	-1.44195E+00
1.33791E-01	-1.27230E-01	1.51026E+00	-1.43698E+00
-5.82375E-02	-1.88564E-01	1.51011E+00	-1.43203E+00
-1.79669E-01	-2.99838E-02	1.50997E+00	-1.42710E+00
-7.48274E-02	1.24861E-01	1.50983E+00	-1.42219E+00
8.66699E-02	6.84046E-02	1.50970E+00	-1.41731E+00
6.37746E-02	-9.34736E-02	1.50956E+00	-1.41245E+00
-1.05299E-01	-1.03948E-01	1.50941E+00	-1.40761E+00
-1.64631E-01	6.75872E-02	1.50925E+00	-1.40278E+00
-1.62579E-02	1.83770E-01	1.50910E+00	-1.39796E+00
