jMRUI Data Textfile
 
Filename: ETA.txt
 
PointsInDataset: 2048
DatasetsInFile: 1
SamplingInterval: 5.00000E-01
ZeroOrderPhase: 0E0
BeginTime: 0E0
TransmitterFrequency: 1.27740E+08
MagneticField: 0E0
TypeOfNucleus: 0E0
NameOfPatient: 
DateOfExperiment: 
Spectrometer: Vespa-Simulation
AdditionalInfo: see 'readme' file for Vespa-Simulation output synopsis
 
  
Signal and FFT 
sig(real)	sig(imag)	fft(real)	fft(imag)
Signal 1 out of 1 in file
2.65147E+00	6.37022E-04	1.60995E+00	-5.75287E+00
2.27775E+00	-1.20994E+00	1.60546E+00	-5.70987E+00
1.37868E+00	-2.04155E+00	1.60108E+00	-5.66751E+00
2.42983E-01	-2.29615E+00	1.59682E+00	-5.62578E+00
-7.92717E-01	-1.96697E+00	1.59265E+00	-5.58466E+00
-1.45737E+00	-1.22546E+00	1.58859E+00	-5.54413E+00
-1.62811E+00	-3.48129E-01	1.58462E+00	-5.50419E+00
-1.35484E+00	3.86444E-01	1.58074E+00	-5.46481E+00
-8.22635E-01	7.91857E-01	1.57696E+00	-5.42599E+00
-2.70216E-01	8.26397E-01	1.57327E+00	-5.38771E+00
1.02406E-01	5.88386E-01	1.56966E+00	-5.34997E+00
2.02609E-01	2.60880E-01	1.56614E+00	-5.31275E+00
6.68918E-02	3.03636E-02	1.56270E+00	-5.27604E+00
-1.68643E-01	1.18545E-02	1.55933E+00	-5.23983E+00
-3.33933E-01	2.08147E-01	1.55603E+00	-5.20411E+00
-2.99166E-01	5.16255E-01	1.55281E+00	-5.16886E+00
-2.85571E-02	7.75515E-01	1.54966E+00	-5.13408E+00
4.05753E-01	8.36434E-01	1.54659E+00	-5.09975E+00
8.53035E-01	6.22813E-01	1.54358E+00	-5.06588E+00
1.14334E+00	1.63617E-01	1.54063E+00	-5.03245E+00
1.15309E+00	-4.16192E-01	1.53775E+00	-4.99945E+00
8.52073E-01	-9.40928E-01	1.53492E+00	-4.96686E+00
3.14963E-01	-1.24729E+00	1.53215E+00	-4.93469E+00
-3.05375E-01	-1.24146E+00	1.52945E+00	-4.90293E+00
-8.31544E-01	-9.29687E-01	1.52679E+00	-4.87156E+00
-1.12165E+00	-4.12644E-01	1.52420E+00	-4.84057E+00
-1.11404E+00	1.52473E-01	1.52166E+00	-4.80997E+00
-8.41902E-01	6.06859E-01	1.51917E+00	-4.77975E+00
-4.14540E-01	8.41571E-01	1.51673E+00	-4.74990E+00
2.55387E-02	8.27825E-01	1.51433E+00	-4.72040E+00
3.52886E-01	6.17219E-01	1.51198E+00	-4.69126E+00
4.98322E-01	3.14431E-01	1.50968E+00	-4.66245E+00
4.64411E-01	3.45966E-02	1.50742E+00	-4.63399E+00
3.13951E-01	-1.38000E-01	1.50521E+00	-4.60586E+00
1.38365E-01	-1.75295E-01	1.50304E+00	-4.57806E+00
1.95027E-02	-1.07204E-01	1.50092E+00	-4.55058E+00
-4.63316E-04	-1.65764E-03	1.49883E+00	-4.52342E+00
6.93580E-02	6.75808E-02	1.49678E+00	-4.49657E+00
1.78003E-01	5.19940E-02	1.49476E+00	-4.47002E+00
2.57655E-01	-5.33744E-02	1.49279E+00	-4.44376E+00
2.53339E-01	-2.10267E-01	1.49085E+00	-4.41779E+00
1.45589E-01	-3.54676E-01	1.48895E+00	-4.39212E+00
-4.20631E-02	-4.23451E-01	1.48709E+00	-4.36673E+00
-2.52680E-01	-3.79393E-01	1.48526E+00	-4.34162E+00
-4.17799E-01	-2.25388E-01	1.48347E+00	-4.31679E+00
-4.82800E-01	-2.98155E-03	1.48170E+00	-4.29222E+00
-4.26056E-01	2.23086E-01	1.47996E+00	-4.26792E+00
-2.65367E-01	3.87957E-01	1.47825E+00	-4.24387E+00
-5.01485E-02	4.48403E-01	1.47658E+00	-4.22007E+00
1.56731E-01	3.95675E-01	1.47493E+00	-4.19653E+00
3.00348E-01	2.55618E-01	1.47332E+00	-4.17324E+00
3.50471E-01	7.71221E-02	1.47174E+00	-4.15019E+00
3.08404E-01	-8.59915E-02	1.47018E+00	-4.12738E+00
2.02512E-01	-1.92640E-01	1.46864E+00	-4.10481E+00
7.52766E-02	-2.25737E-01	1.46713E+00	-4.08246E+00
-3.25941E-02	-1.93831E-01	1.46564E+00	-4.06034E+00
-9.51568E-02	-1.23866E-01	1.46418E+00	-4.03844E+00
-1.07107E-01	-4.87755E-02	1.46275E+00	-4.01676E+00
-8.15484E-02	4.98108E-03	1.46135E+00	-3.99530E+00
-4.15959E-02	2.54542E-02	1.45997E+00	-3.97406E+00
-9.82784E-03	1.66024E-02	1.45861E+00	-3.95303E+00
2.41076E-04	-6.44090E-03	1.45726E+00	-3.93221E+00
-1.22096E-02	-2.55333E-02	1.45593E+00	-3.91159E+00
-3.71832E-02	-2.75055E-02	1.45462E+00	-3.89116E+00
-5.97058E-02	-8.94443E-03	1.45334E+00	-3.87093E+00
-6.67993E-02	2.35951E-02	1.45207E+00	-3.85088E+00
-5.27162E-02	5.73911E-02	1.45084E+00	-3.83102E+00
-2.06476E-02	7.93083E-02	1.44963E+00	-3.81136E+00
1.92778E-02	8.10363E-02	1.44843E+00	-3.79189E+00
5.44279E-02	6.18418E-02	1.44726E+00	-3.77261E+00
7.45115E-02	2.81261E-02	1.44609E+00	-3.75351E+00
7.49154E-02	-9.57583E-03	1.44493E+00	-3.73457E+00
5.75484E-02	-4.06597E-02	1.44380E+00	-3.71580E+00
2.92523E-02	-5.79024E-02	1.44269E+00	-3.69721E+00
-1.18355E-03	-5.91231E-02	1.44161E+00	-3.67879E+00
-2.60580E-02	-4.68318E-02	1.44053E+00	-3.66054E+00
-4.07242E-02	-2.64121E-02	1.43947E+00	-3.64246E+00
-4.40415E-02	-3.86916E-03	1.43842E+00	-3.62454E+00
-3.75653E-02	1.58930E-02	1.43739E+00	-3.60678E+00
-2.42140E-02	2.97950E-02	1.43637E+00	-3.58917E+00
-7.14849E-03	3.63909E-02	1.43537E+00	-3.57171E+00
1.07181E-02	3.52799E-02	1.43439E+00	-3.55442E+00
2.66282E-02	2.66904E-02	1.43341E+00	-3.53727E+00
3.77508E-02	1.15542E-02	1.43244E+00	-3.52027E+00
4.12871E-02	-8.05715E-03	1.43149E+00	-3.50341E+00
3.51433E-02	-2.85654E-02	1.43056E+00	-3.48669E+00
1.89945E-02	-4.51112E-02	1.42966E+00	-3.47012E+00
-4.80709E-03	-5.26048E-02	1.42876E+00	-3.45369E+00
-3.11027E-02	-4.73978E-02	1.42789E+00	-3.43741E+00
-5.29200E-02	-2.89486E-02	1.42701E+00	-3.42128E+00
-6.34844E-02	-7.05344E-04	1.42614E+00	-3.40528E+00
-5.85832E-02	3.03696E-02	1.42528E+00	-3.38941E+00
-3.83632E-02	5.56961E-02	1.42443E+00	-3.37366E+00
-7.75063E-03	6.78146E-02	1.42359E+00	-3.35804E+00
2.48463E-02	6.30164E-02	1.42277E+00	-3.34255E+00
5.02194E-02	4.27975E-02	1.42196E+00	-3.32718E+00
6.14687E-02	1.35017E-02	1.42116E+00	-3.31194E+00
5.64014E-02	-1.58230E-02	1.42038E+00	-3.29682E+00
3.82461E-02	-3.66061E-02	1.41960E+00	-3.28183E+00
1.43576E-02	-4.37902E-02	1.41884E+00	-3.26696E+00
-6.61611E-03	-3.75282E-02	1.41808E+00	-3.25220E+00
-1.80431E-02	-2.28866E-02	1.41734E+00	-3.23757E+00
-1.77884E-02	-7.63427E-03	1.41660E+00	-3.22305E+00
-8.88167E-03	1.01922E-03	1.41587E+00	-3.20864E+00
1.91353E-03	-5.67240E-04	1.41515E+00	-3.19435E+00
7.07017E-03	-1.09143E-02	1.41444E+00	-3.18017E+00
1.63066E-03	-2.39897E-02	1.41374E+00	-3.16609E+00
-1.44496E-02	-3.17021E-02	1.41305E+00	-3.15213E+00
-3.59293E-02	-2.73599E-02	1.41236E+00	-3.13827E+00
-5.40925E-02	-8.72199E-03	1.41169E+00	-3.12452E+00
-6.00945E-02	2.06125E-02	1.41102E+00	-3.11087E+00
-4.85575E-02	5.20744E-02	1.41036E+00	-3.09732E+00
-2.00207E-02	7.50191E-02	1.40971E+00	-3.08388E+00
1.87567E-02	8.05810E-02	1.40907E+00	-3.07053E+00
5.68331E-02	6.50447E-02	1.40844E+00	-3.05728E+00
8.27269E-02	3.14504E-02	1.40782E+00	-3.04413E+00
8.83809E-02	-1.11980E-02	1.40720E+00	-3.03108E+00
7.19641E-02	-5.08764E-02	1.40660E+00	-3.01814E+00
3.84963E-02	-7.65381E-02	1.40599E+00	-3.00529E+00
-1.91599E-03	-8.17600E-02	1.40539E+00	-2.99253E+00
-3.75699E-02	-6.67031E-02	1.40479E+00	-2.97985E+00
-5.91033E-02	-3.77287E-02	1.40421E+00	-2.96726E+00
-6.24284E-02	-4.89250E-03	1.40364E+00	-2.95477E+00
-4.96863E-02	2.17189E-02	1.40307E+00	-2.94237E+00
-2.79408E-02	3.54267E-02	1.40252E+00	-2.93006E+00
-6.20519E-03	3.49456E-02	1.40196E+00	-2.91784E+00
8.00709E-03	2.42561E-02	1.40140E+00	-2.90570E+00
1.13212E-02	1.05477E-02	1.40085E+00	-2.89364E+00
5.37587E-03	1.09794E-03	1.40031E+00	-2.88166E+00
-4.29492E-03	3.35003E-04	1.39979E+00	-2.86976E+00
-1.08447E-02	8.19749E-03	1.39927E+00	-2.85796E+00
-9.09247E-03	2.03644E-02	1.39877E+00	-2.84623E+00
2.27307E-03	3.01895E-02	1.39826E+00	-2.83460E+00
2.00978E-02	3.15304E-02	1.39775E+00	-2.82304E+00
3.79626E-02	2.13459E-02	1.39725E+00	-2.81156E+00
4.86741E-02	1.06025E-03	1.39675E+00	-2.80015E+00
4.70643E-02	-2.38064E-02	1.39626E+00	-2.78882E+00
3.20320E-02	-4.55683E-02	1.39578E+00	-2.77756E+00
7.06119E-03	-5.71250E-02	1.39531E+00	-2.76638E+00
-2.09162E-02	-5.44679E-02	1.39484E+00	-2.75528E+00
-4.38913E-02	-3.80752E-02	1.39437E+00	-2.74425E+00
-5.54685E-02	-1.26940E-02	1.39391E+00	-2.73330E+00
-5.29133E-02	1.43386E-02	1.39345E+00	-2.72241E+00
-3.78661E-02	3.55802E-02	1.39300E+00	-2.71160E+00
-1.55459E-02	4.58609E-02	1.39255E+00	-2.70085E+00
7.19616E-03	4.37436E-02	1.39211E+00	-2.69016E+00
2.41862E-02	3.16112E-02	1.39168E+00	-2.67956E+00
3.18151E-02	1.44897E-02	1.39126E+00	-2.66902E+00
2.98622E-02	-1.89484E-03	1.39085E+00	-2.65856E+00
2.10874E-02	-1.30666E-02	1.39043E+00	-2.64817E+00
9.86241E-03	-1.70812E-02	1.39001E+00	-2.63785E+00
4.31685E-04	-1.47647E-02	1.38958E+00	-2.62759E+00
-4.54317E-03	-8.94951E-03	1.38916E+00	-2.61739E+00
-4.65767E-03	-3.10413E-03	1.38875E+00	-2.60724E+00
-1.52806E-03	7.00319E-05	1.38834E+00	-2.59715E+00
2.16635E-03	-4.40805E-04	1.38795E+00	-2.58712E+00
3.91211E-03	-3.80595E-03	1.38757E+00	-2.57717E+00
2.37070E-03	-7.92097E-03	1.38719E+00	-2.56728E+00
-2.18424E-03	-1.04044E-02	1.38681E+00	-2.55746E+00
-8.09851E-03	-9.59689E-03	1.38643E+00	-2.54770E+00
-1.30783E-02	-5.18622E-03	1.38605E+00	-2.53799E+00
-1.51010E-02	1.72727E-03	1.38568E+00	-2.52834E+00
-1.31539E-02	9.09099E-03	1.38532E+00	-2.51875E+00
-7.54885E-03	1.46582E-02	1.38495E+00	-2.50922E+00
2.45250E-04	1.67438E-02	1.38459E+00	-2.49975E+00
8.13111E-03	1.47210E-02	1.38422E+00	-2.49034E+00
1.40497E-02	9.13279E-03	1.38386E+00	-2.48097E+00
1.65546E-02	1.44029E-03	1.38351E+00	-2.47165E+00
1.51307E-02	-6.44425E-03	1.38317E+00	-2.46239E+00
1.02271E-02	-1.26744E-02	1.38283E+00	-2.45320E+00
3.05355E-03	-1.58827E-02	1.38249E+00	-2.44406E+00
-4.75090E-03	-1.54213E-02	1.38215E+00	-2.43498E+00
-1.14741E-02	-1.14276E-02	1.38180E+00	-2.42594E+00
-1.56489E-02	-4.75547E-03	1.38147E+00	-2.41695E+00
-1.63121E-02	3.19209E-03	1.38114E+00	-2.40800E+00
-1.31901E-02	1.06973E-02	1.38083E+00	-2.39911E+00
-6.80414E-03	1.60373E-02	1.38052E+00	-2.39028E+00
1.55410E-03	1.78430E-02	1.38021E+00	-2.38151E+00
1.00172E-02	1.54558E-02	1.37990E+00	-2.37279E+00
1.65220E-02	9.18753E-03	1.37958E+00	-2.36412E+00
1.93238E-02	3.70168E-04	1.37926E+00	-2.35549E+00
1.75173E-02	-8.88170E-03	1.37895E+00	-2.34690E+00
1.13889E-02	-1.61929E-02	1.37864E+00	-2.33836E+00
2.44724E-03	-1.95991E-02	1.37834E+00	-2.32986E+00
-6.94046E-03	-1.81807E-02	1.37805E+00	-2.32142E+00
-1.42350E-02	-1.24105E-02	1.37776E+00	-2.31302E+00
-1.75287E-02	-4.06193E-03	1.37747E+00	-2.30468E+00
-1.61867E-02	4.33934E-03	1.37719E+00	-2.29638E+00
-1.10748E-02	1.03576E-02	1.37690E+00	-2.28813E+00
-4.25363E-03	1.24970E-02	1.37661E+00	-2.27992E+00
1.77496E-03	1.07281E-02	1.37633E+00	-2.27175E+00
