jMRUI Data Textfile
 
Filename: GABA.txt
 
PointsInDataset: 2048
DatasetsInFile: 1
SamplingInterval: 5.00000E-01
ZeroOrderPhase: 0E0
BeginTime: 0E0
TransmitterFrequency: 1.27740E+08
MagneticField: 0E0
TypeOfNucleus: 0E0
NameOfPatient: 
DateOfExperiment: 
Spectrometer: Vespa-Simulation
AdditionalInfo: see 'readme' file for Vespa-Simulation output synopsis
 
  
Signal and FFT 
sig(real)	sig(imag)	fft(real)	fft(imag)
Signal 1 out of 1 in file
3.75420E+00	-2.04303E-01	1.79553E+00	-4.09970E+00
2.04101E+00	-2.98642E+00	1.79540E+00	-4.08304E+00
-1.06365E+00	-3.19185E+00	1.79528E+00	-4.06651E+00
-2.86571E+00	-9.52513E-01	1.79516E+00	-4.05009E+00
-2.12293E+00	1.51223E+00	1.79505E+00	-4.03380E+00
1.69203E-02	2.15058E+00	1.79493E+00	-4.01761E+00
1.41952E+00	9.03935E-01	1.79481E+00	-4.00153E+00
1.08934E+00	-5.95024E-01	1.79470E+00	-3.98555E+00
-1.22722E-01	-8.75168E-01	1.79461E+00	-3.96968E+00
-7.05971E-01	-9.48155E-03	1.79452E+00	-3.95392E+00
-1.18947E-01	7.51645E-01	1.79445E+00	-3.93828E+00
8.17220E-01	4.60613E-01	1.79439E+00	-3.92275E+00
9.61296E-01	-5.79410E-01	1.79432E+00	-3.90733E+00
7.22025E-02	-1.26393E+00	1.79425E+00	-3.89201E+00
-1.03096E+00	-8.77690E-01	1.79418E+00	-3.87679E+00
-1.36218E+00	2.53342E-01	1.79412E+00	-3.86166E+00
-6.85488E-01	1.18306E+00	1.79407E+00	-3.84664E+00
4.00712E-01	1.24759E+00	1.79403E+00	-3.83171E+00
1.10600E+00	5.34875E-01	1.79399E+00	-3.81689E+00
1.07468E+00	-3.70662E-01	1.79396E+00	-3.80217E+00
4.85831E-01	-9.29935E-01	1.79393E+00	-3.78755E+00
-2.48077E-01	-9.44181E-01	1.79390E+00	-3.77302E+00
-7.70229E-01	-5.07130E-01	1.79387E+00	-3.75858E+00
-8.73170E-01	1.38462E-01	1.79385E+00	-3.74423E+00
-5.19041E-01	6.77412E-01	1.79384E+00	-3.72997E+00
1.08763E-01	8.12603E-01	1.79383E+00	-3.71581E+00
6.29915E-01	4.50924E-01	1.79383E+00	-3.70174E+00
6.94375E-01	-1.59471E-01	1.79383E+00	-3.68777E+00
2.83101E-01	-5.64540E-01	1.79383E+00	-3.67388E+00
-2.35552E-01	-4.79367E-01	1.79383E+00	-3.66008E+00
-4.22796E-01	-5.53852E-02	1.79383E+00	-3.64636E+00
-1.82594E-01	2.64050E-01	1.79384E+00	-3.63272E+00
1.56446E-01	1.87553E-01	1.79386E+00	-3.61916E+00
1.95553E-01	-1.33312E-01	1.79388E+00	-3.60570E+00
-1.06474E-01	-2.79760E-01	1.79392E+00	-3.59232E+00
-3.88450E-01	-2.88378E-02	1.79395E+00	-3.57903E+00
-2.78744E-01	3.89683E-01	1.79397E+00	-3.56582E+00
1.90722E-01	5.21898E-01	1.79400E+00	-3.55269E+00
5.90037E-01	1.67337E-01	1.79403E+00	-3.53963E+00
5.15967E-01	-3.94445E-01	1.79406E+00	-3.52665E+00
-1.49302E-03	-6.63572E-01	1.79410E+00	-3.51374E+00
-5.21409E-01	-3.99003E-01	1.79415E+00	-3.50092E+00
-6.09387E-01	1.61841E-01	1.79420E+00	-3.48818E+00
-2.28661E-01	5.42117E-01	1.79425E+00	-3.47552E+00
2.62313E-01	4.64718E-01	1.79429E+00	-3.46294E+00
4.65486E-01	6.60534E-02	1.79433E+00	-3.45042E+00
2.85493E-01	-2.82713E-01	1.79436E+00	-3.43796E+00
-4.65859E-02	-3.29030E-01	1.79441E+00	-3.42556E+00
-2.34847E-01	-1.23217E-01	1.79448E+00	-3.41323E+00
-1.79566E-01	9.60609E-02	1.79456E+00	-3.40098E+00
-8.59144E-03	1.50337E-01	1.79465E+00	-3.38882E+00
9.44902E-02	5.45285E-02	1.79474E+00	-3.37674E+00
6.34514E-02	-5.28141E-02	1.79483E+00	-3.36474E+00
-2.84105E-02	-6.66237E-02	1.79490E+00	-3.35281E+00
-7.39353E-02	2.56248E-03	1.79496E+00	-3.34095E+00
-3.57736E-02	7.10784E-02	1.79501E+00	-3.32915E+00
4.07073E-02	7.42953E-02	1.79506E+00	-3.31739E+00
8.68252E-02	1.48231E-02	1.79511E+00	-3.30568E+00
6.94034E-02	-5.70306E-02	1.79518E+00	-3.29403E+00
4.81266E-03	-9.04599E-02	1.79526E+00	-3.28244E+00
-6.28338E-02	-6.57390E-02	1.79537E+00	-3.27092E+00
-9.11845E-02	5.22480E-04	1.79549E+00	-3.25947E+00
-6.18719E-02	6.71839E-02	1.79561E+00	-3.24810E+00
8.20852E-03	9.08069E-02	1.79574E+00	-3.23682E+00
7.31444E-02	5.32175E-02	1.79585E+00	-3.22561E+00
8.63914E-02	-2.12627E-02	1.79594E+00	-3.21446E+00
3.69414E-02	-7.83754E-02	1.79601E+00	-3.20336E+00
-3.75578E-02	-7.46224E-02	1.79608E+00	-3.19231E+00
-7.85042E-02	-1.44204E-02	1.79615E+00	-3.18130E+00
-5.51238E-02	5.18618E-02	1.79624E+00	-3.17033E+00
9.34801E-03	7.07338E-02	1.79634E+00	-3.15942E+00
5.92265E-02	3.12366E-02	1.79646E+00	-3.14857E+00
5.57720E-02	-2.84050E-02	1.79659E+00	-3.13780E+00
8.44482E-03	-5.76192E-02	1.79671E+00	-3.12709E+00
-3.87055E-02	-3.74299E-02	1.79683E+00	-3.11644E+00
-4.86510E-02	8.29036E-03	1.79694E+00	-3.10585E+00
-2.05734E-02	3.97169E-02	1.79705E+00	-3.09530E+00
1.66823E-02	3.63541E-02	1.79716E+00	-3.08481E+00
3.41521E-02	8.74651E-03	1.79727E+00	-3.07437E+00
2.49678E-02	-1.77745E-02	1.79739E+00	-3.06398E+00
2.75913E-03	-2.62292E-02	1.79751E+00	-3.05365E+00
-1.49384E-02	-1.69977E-02	1.79764E+00	-3.04338E+00
-1.95581E-02	-7.89879E-04	1.79776E+00	-3.03316E+00
-1.24669E-02	1.19721E-02	1.79787E+00	-3.02299E+00
2.40982E-04	1.57308E-02	1.79799E+00	-3.01287E+00
1.13467E-02	9.54022E-03	1.79811E+00	-3.00279E+00
1.41775E-02	-2.94291E-03	1.79824E+00	-2.99277E+00
5.94196E-03	-1.34321E-02	1.79837E+00	-2.98279E+00
-8.27807E-03	-1.30832E-02	1.79850E+00	-2.97287E+00
-1.68580E-02	-2.74827E-04	1.79863E+00	-2.96300E+00
-1.06407E-02	1.54052E-02	1.79876E+00	-2.95318E+00
7.39468E-03	1.95279E-02	1.79889E+00	-2.94340E+00
2.23309E-02	5.91848E-03	1.79902E+00	-2.93367E+00
1.95965E-02	-1.57653E-02	1.79915E+00	-2.92399E+00
-9.46555E-04	-2.68035E-02	1.79929E+00	-2.91436E+00
-2.29251E-02	-1.59806E-02	1.79943E+00	-2.90477E+00
-2.69510E-02	9.01459E-03	1.79957E+00	-2.89524E+00
-8.43413E-03	2.69178E-02	1.79971E+00	-2.88575E+00
1.68697E-02	2.15745E-02	1.79984E+00	-2.87631E+00
2.60621E-02	-2.49850E-03	1.79997E+00	-2.86691E+00
1.03083E-02	-2.28175E-02	1.80010E+00	-2.85755E+00
-1.54648E-02	-1.91945E-02	1.80024E+00	-2.84823E+00
-2.50542E-02	6.14275E-03	1.80038E+00	-2.83895E+00
-6.03924E-03	2.82971E-02	1.80052E+00	-2.82972E+00
2.57730E-02	2.20660E-02	1.80067E+00	-2.82054E+00
3.83116E-02	-1.23178E-02	1.80082E+00	-2.81140E+00
1.32899E-02	-4.53349E-02	1.80097E+00	-2.80231E+00
-3.31616E-02	-4.30330E-02	1.80111E+00	-2.79326E+00
-6.09602E-02	2.46096E-04	1.80125E+00	-2.78425E+00
-4.11564E-02	5.24389E-02	1.80139E+00	-2.77528E+00
1.57279E-02	6.92472E-02	1.80154E+00	-2.76634E+00
6.57251E-02	3.32603E-02	1.80168E+00	-2.75745E+00
6.84057E-02	-2.91200E-02	1.80183E+00	-2.74860E+00
2.18523E-02	-6.95362E-02	1.80199E+00	-2.73979E+00
-3.63388E-02	-5.89108E-02	1.80214E+00	-2.73102E+00
-6.24706E-02	-1.05824E-02	1.80229E+00	-2.72230E+00
-4.33120E-02	3.46297E-02	1.80244E+00	-2.71361E+00
-2.95446E-03	4.56319E-02	1.80259E+00	-2.70496E+00
2.35068E-02	2.52494E-02	1.80274E+00	-2.69634E+00
2.21472E-02	1.03602E-03	1.80289E+00	-2.68777E+00
8.09236E-03	-4.85365E-03	1.80305E+00	-2.67923E+00
4.79442E-03	4.03414E-03	1.80320E+00	-2.67074E+00
1.78768E-02	6.19900E-03	1.80336E+00	-2.66228E+00
2.95225E-02	-1.23352E-02	1.80351E+00	-2.65386E+00
1.74430E-02	-4.10274E-02	1.80367E+00	-2.64548E+00
-2.09751E-02	-5.24057E-02	1.80382E+00	-2.63713E+00
-6.20100E-02	-2.66551E-02	1.80397E+00	-2.62881E+00
-7.22422E-02	2.86255E-02	1.80413E+00	-2.62053E+00
-3.48066E-02	7.98357E-02	1.80428E+00	-2.61229E+00
3.47277E-02	8.91286E-02	1.80444E+00	-2.60408E+00
9.45809E-02	4.16122E-02	1.80460E+00	-2.59592E+00
1.02345E-01	-4.01939E-02	1.80476E+00	-2.58778E+00
4.51158E-02	-1.06049E-01	1.80491E+00	-2.57968E+00
-4.61745E-02	-1.09475E-01	1.80507E+00	-2.57161E+00
-1.12387E-01	-4.25903E-02	1.80522E+00	-2.56358E+00
-1.06720E-01	5.23358E-02	1.80538E+00	-2.55557E+00
-3.24051E-02	1.09681E-01	1.80555E+00	-2.54761E+00
5.56198E-02	9.06062E-02	1.80571E+00	-2.53968E+00
9.30935E-02	1.59975E-02	1.80587E+00	-2.53178E+00
6.03944E-02	-5.05226E-02	1.80603E+00	-2.52392E+00
-1.33262E-03	-5.93492E-02	1.80619E+00	-2.51609E+00
-3.11155E-02	-1.99949E-02	1.80634E+00	-2.50829E+00
-9.47860E-03	1.15481E-02	1.80650E+00	-2.50052E+00
2.19518E-02	-5.73971E-03	1.80665E+00	-2.49278E+00
6.95621E-03	-4.96490E-02	1.80680E+00	-2.48507E+00
-5.75305E-02	-5.43340E-02	1.80696E+00	-2.47738E+00
-1.06194E-01	1.60144E-02	1.80713E+00	-2.46973E+00
-6.75885E-02	1.15178E-01	1.80730E+00	-2.46211E+00
5.40497E-02	1.46736E-01	1.80748E+00	-2.45453E+00
1.64943E-01	5.78929E-02	1.80765E+00	-2.44698E+00
1.61094E-01	-9.68039E-02	1.80781E+00	-2.43947E+00
2.95455E-02	-1.92844E-01	1.80797E+00	-2.43199E+00
-1.29892E-01	-1.46565E-01	1.80812E+00	-2.42454E+00
-1.89948E-01	5.91789E-03	1.80828E+00	-2.41710E+00
-1.09510E-01	1.40157E-01	1.80843E+00	-2.40969E+00
3.37320E-02	1.56188E-01	1.80859E+00	-2.40231E+00
1.20967E-01	6.33797E-02	1.80875E+00	-2.39495E+00
1.00902E-01	-4.17593E-02	1.80892E+00	-2.38763E+00
2.35766E-02	-7.53074E-02	1.80909E+00	-2.38033E+00
-2.55457E-02	-3.95055E-02	1.80927E+00	-2.37307E+00
-1.49720E-02	-1.34818E-03	1.80944E+00	-2.36584E+00
1.24722E-02	-9.69828E-03	1.80961E+00	-2.35864E+00
6.43623E-04	-4.39979E-02	1.80977E+00	-2.35147E+00
-5.13182E-02	-4.53922E-02	1.80994E+00	-2.34433E+00
-8.77356E-02	1.10520E-02	1.81010E+00	-2.33721E+00
-5.88904E-02	8.47278E-02	1.81026E+00	-2.33011E+00
2.41988E-02	1.09973E-01	1.81043E+00	-2.32304E+00
9.98197E-02	6.09881E-02	1.81059E+00	-2.31600E+00
1.13936E-01	-2.70738E-02	1.81075E+00	-2.30898E+00
6.32738E-02	-9.52805E-02	1.81092E+00	-2.30199E+00
-1.43309E-02	-1.09777E-01	1.81109E+00	-2.29502E+00
-7.86724E-02	-7.44895E-02	1.81125E+00	-2.28809E+00
-1.08720E-01	-1.02077E-02	1.81142E+00	-2.28117E+00
-9.55411E-02	6.22149E-02	1.81159E+00	-2.27429E+00
-3.53798E-02	1.16721E-01	1.81176E+00	-2.26742E+00
5.62132E-02	1.18511E-01	1.81193E+00	-2.26059E+00
1.30815E-01	4.83125E-02	1.81210E+00	-2.25378E+00
1.30346E-01	-6.32805E-02	1.81227E+00	-2.24699E+00
4.12906E-02	-1.40057E-01	1.81244E+00	-2.24024E+00
-7.63575E-02	-1.19524E-01	1.81261E+00	-2.23351E+00
-1.30837E-01	-1.63817E-02	1.81278E+00	-2.22680E+00
-8.25824E-02	8.16431E-02	1.81294E+00	-2.22012E+00
1.45203E-02	9.41362E-02	1.81310E+00	-2.21346E+00
6.53025E-02	2.71874E-02	1.81326E+00	-2.20681E+00
3.12126E-02	-3.45937E-02	1.81342E+00	-2.20018E+00
-2.99124E-02	-2.07758E-02	1.81360E+00	-2.19358E+00
-2.97315E-02	4.51577E-02	1.81378E+00	-2.18700E+00
4.67279E-02	6.94680E-02	1.81396E+00	-2.18046E+00
1.14782E-01	-4.45289E-03	1.81414E+00	-2.17395E+00
7.79210E-02	-1.20956E-01	1.81431E+00	-2.16746E+00
-5.97383E-02	-1.57866E-01	1.81447E+00	-2.16100E+00
