jMRUI Data Textfile
 
Filename: Gln.txt
 
PointsInDataset: 2048
DatasetsInFile: 1
SamplingInterval: 5.00000E-01
ZeroOrderPhase: 0E0
BeginTime: 0E0
TransmitterFrequency: 1.27740E+08
MagneticField: 0E0
TypeOfNucleus: 0E0
NameOfPatient: 
DateOfExperiment: 
Spectrometer: Vespa-Simulation
AdditionalInfo: see 'readme' file for Vespa-Simulation output synopsis
 
  
Signal and FFT 
sig(real)	sig(imag)	fft(real)	fft(imag)
Signal 1 out of 1 in file
5.65812E+00	-9.29177E-02	2.91552E+00	-2.78763E+00
3.28274E+00	-1.08430E+00	2.91413E+00	-2.75522E+00
-1.37125E+00	-1.41700E+00	2.91278E+00	-2.72305E+00
-4.19549E+00	-9.03157E-01	2.91147E+00	-2.69110E+00
-3.04524E+00	6.77574E-02	2.91021E+00	-2.65937E+00
5.06568E-01	6.79293E-01	2.90901E+00	-2.62787E+00
2.98558E+00	3.05700E-01	2.90786E+00	-2.59659E+00
2.35817E+00	-8.13867E-01	2.90675E+00	-2.56554E+00
-3.78420E-01	-1.58800E+00	2.90567E+00	-2.53471E+00
-2.58257E+00	-1.01317E+00	2.90462E+00	-2.50409E+00
-2.58227E+00	7.36308E-01	2.90360E+00	-2.47367E+00
-8.95580E-01	2.24257E+00	2.90262E+00	-2.44344E+00
7.75129E-01	2.08968E+00	2.90166E+00	-2.41339E+00
1.33123E+00	3.02721E-01	2.90074E+00	-2.38352E+00
9.79697E-01	-1.52483E+00	2.89986E+00	-2.35382E+00
4.96426E-01	-1.69760E+00	2.89901E+00	-2.32431E+00
2.34521E-01	-9.17955E-02	2.89819E+00	-2.29497E+00
5.93721E-03	1.67559E+00	2.89740E+00	-2.26580E+00
-3.09099E-01	1.81804E+00	2.89662E+00	-2.23679E+00
-4.13384E-01	1.36417E-01	2.89588E+00	-2.20792E+00
3.70131E-03	-1.80874E+00	2.89516E+00	-2.17921E+00
6.87969E-01	-2.25935E+00	2.89448E+00	-2.15063E+00
9.12130E-01	-9.44417E-01	2.89383E+00	-2.12221E+00
2.45485E-01	7.88224E-01	2.89322E+00	-2.09393E+00
-8.74337E-01	1.41302E+00	2.89262E+00	-2.06579E+00
-1.48385E+00	6.76059E-01	2.89205E+00	-2.03780E+00
-1.03836E+00	-3.82480E-01	2.89149E+00	-2.00993E+00
4.82505E-02	-6.73517E-01	2.89095E+00	-1.98218E+00
8.37236E-01	-1.33681E-01	2.89043E+00	-1.95454E+00
7.84080E-01	4.49104E-01	2.88994E+00	-1.92702E+00
1.74067E-01	4.72421E-01	2.88948E+00	-1.89962E+00
-3.04044E-01	1.48007E-01	2.88903E+00	-1.87233E+00
-2.87148E-01	6.70684E-02	2.88860E+00	-1.84515E+00
2.17552E-02	3.46331E-01	2.88820E+00	-1.81807E+00
2.43131E-01	4.50470E-01	2.88780E+00	-1.79109E+00
2.73623E-01	-8.65878E-02	2.88743E+00	-1.76420E+00
2.74098E-01	-9.42130E-01	2.88708E+00	-1.73740E+00
3.14401E-01	-1.22285E+00	2.88676E+00	-1.71069E+00
2.16190E-01	-4.56093E-01	2.88646E+00	-1.68407E+00
-1.72606E-01	7.64444E-01	2.88618E+00	-1.65755E+00
-6.46688E-01	1.27911E+00	2.88591E+00	-1.63110E+00
-7.51288E-01	5.45869E-01	2.88565E+00	-1.60474E+00
-2.84424E-01	-7.51148E-01	2.88541E+00	-1.57845E+00
3.89521E-01	-1.34894E+00	2.88518E+00	-1.55222E+00
6.45332E-01	-6.58173E-01	2.88498E+00	-1.52606E+00
2.44912E-01	6.68642E-01	2.88480E+00	-1.49996E+00
-3.85905E-01	1.41183E+00	2.88464E+00	-1.47394E+00
-5.89676E-01	9.71224E-01	2.88450E+00	-1.44798E+00
-1.67476E-01	-1.38570E-01	2.88437E+00	-1.42208E+00
4.26282E-01	-9.00041E-01	2.88424E+00	-1.39624E+00
5.93245E-01	-7.87578E-01	2.88413E+00	-1.37044E+00
2.31414E-01	-1.34228E-01	2.88403E+00	-1.34469E+00
-2.00422E-01	3.71085E-01	2.88396E+00	-1.31899E+00
-2.38459E-01	3.94613E-01	2.88390E+00	-1.29332E+00
6.36442E-02	1.34677E-01	2.88386E+00	-1.26770E+00
2.39503E-01	-7.39834E-02	2.88384E+00	-1.24212E+00
-1.18847E-03	-1.53220E-01	2.88384E+00	-1.21658E+00
-4.02760E-01	-2.31246E-01	2.88384E+00	-1.19108E+00
-4.54730E-01	-3.25519E-01	2.88386E+00	-1.16561E+00
-1.05512E-02	-2.47462E-01	2.88388E+00	-1.14017E+00
4.92554E-01	1.21141E-01	2.88393E+00	-1.11474E+00
4.92436E-01	5.55009E-01	2.88399E+00	-1.08934E+00
-6.04775E-02	6.27532E-01	2.88407E+00	-1.06397E+00
-6.09124E-01	1.73399E-01	2.88416E+00	-1.03861E+00
-5.66560E-01	-4.56004E-01	2.88427E+00	-1.01328E+00
5.59775E-02	-6.87473E-01	2.88438E+00	-9.87962E-01
6.52008E-01	-2.98956E-01	2.88450E+00	-9.62655E-01
6.48773E-01	3.40246E-01	2.88463E+00	-9.37352E-01
8.43662E-02	6.32740E-01	2.88478E+00	-9.12049E-01
-4.67954E-01	3.41553E-01	2.88494E+00	-8.86745E-01
-5.11864E-01	-2.09008E-01	2.88511E+00	-8.61438E-01
-1.04197E-01	-5.02274E-01	2.88530E+00	-8.36128E-01
2.81825E-01	-3.44359E-01	2.88551E+00	-8.10813E-01
2.95222E-01	1.29816E-02	2.88574E+00	-7.85493E-01
3.50062E-02	2.12249E-01	2.88598E+00	-7.60165E-01
-1.49692E-01	1.65925E-01	2.88624E+00	-7.34829E-01
-9.29391E-02	6.19364E-02	2.88651E+00	-7.09481E-01
3.79801E-02	6.07708E-02	2.88679E+00	-6.84118E-01
1.17049E-02	9.17540E-02	2.88708E+00	-6.58738E-01
-1.46149E-01	-8.78579E-03	2.88739E+00	-6.33338E-01
-1.83685E-01	-2.20497E-01	2.88770E+00	-6.07915E-01
3.85316E-02	-3.02837E-01	2.88802E+00	-5.82462E-01
3.27316E-01	-7.71268E-02	2.88835E+00	-5.56974E-01
3.45066E-01	3.06909E-01	2.88870E+00	-5.31446E-01
5.82041E-03	4.69429E-01	2.88906E+00	-5.05875E-01
-3.84471E-01	1.97526E-01	2.88944E+00	-4.80261E-01
-4.28894E-01	-2.92282E-01	2.88985E+00	-4.54606E-01
-6.42669E-02	-5.40127E-01	2.89028E+00	-4.28914E-01
3.58926E-01	-3.03547E-01	2.89072E+00	-4.03186E-01
4.34958E-01	1.92470E-01	2.89118E+00	-3.77420E-01
1.13928E-01	4.83251E-01	2.89165E+00	-3.51611E-01
-2.69114E-01	3.27084E-01	2.89212E+00	-3.25750E-01
-3.57740E-01	-8.04779E-02	2.89261E+00	-2.99832E-01
-1.25117E-01	-3.41797E-01	2.89309E+00	-2.73854E-01
1.49176E-01	-2.63193E-01	2.89359E+00	-2.47808E-01
2.09215E-01	-1.79175E-03	2.89409E+00	-2.21687E-01
7.35999E-02	1.60568E-01	2.89461E+00	-1.95484E-01
-4.86009E-02	1.24542E-01	2.89515E+00	-1.69199E-01
-3.38294E-02	2.32349E-02	2.89573E+00	-1.42836E-01
2.92729E-02	5.93386E-03	2.89632E+00	-1.16401E-01
-6.45183E-03	4.85014E-02	2.89695E+00	-8.98951E-02
-1.27947E-01	1.68559E-02	2.89758E+00	-6.33153E-02
-1.62250E-01	-1.18912E-01	2.89823E+00	-3.66556E-02
-9.72089E-04	-2.08165E-01	2.89889E+00	-9.90912E-03
2.29649E-01	-9.40069E-02	2.89956E+00	1.69307E-02
2.78026E-01	1.67590E-01	2.90025E+00	4.38682E-02
5.03304E-02	3.23262E-01	2.90095E+00	7.09058E-02
-2.56286E-01	1.84936E-01	2.90167E+00	9.80451E-02
-3.39084E-01	-1.46486E-01	2.90241E+00	1.25288E-01
-1.05255E-01	-3.59333E-01	2.90316E+00	1.52639E-01
2.24213E-01	-2.44850E-01	2.90393E+00	1.80104E-01
3.37823E-01	8.60389E-02	2.90470E+00	2.07692E-01
1.45648E-01	3.16289E-01	2.90550E+00	2.35404E-01
-1.47116E-01	2.44066E-01	2.90633E+00	2.63243E-01
-2.66916E-01	-2.85670E-02	2.90717E+00	2.91210E-01
-1.42682E-01	-2.25782E-01	2.90804E+00	3.19305E-01
5.98577E-02	-1.87583E-01	2.90893E+00	3.47531E-01
1.44837E-01	-5.79073E-03	2.90984E+00	3.75893E-01
8.43518E-02	1.14693E-01	2.91076E+00	4.04398E-01
6.30370E-04	8.61691E-02	2.91171E+00	4.33051E-01
-1.04157E-02	8.73237E-04	2.91267E+00	4.61856E-01
1.34013E-02	-1.65597E-02	2.91366E+00	4.90815E-01
-1.88891E-02	3.22526E-02	2.91468E+00	5.19931E-01
-1.03544E-01	4.00713E-02	2.91571E+00	5.49210E-01
-1.26397E-01	-4.63846E-02	2.91676E+00	5.78656E-01
-8.26696E-03	-1.37436E-01	2.91783E+00	6.08278E-01
1.67763E-01	-1.00791E-01	2.91892E+00	6.38081E-01
2.17902E-01	6.60593E-02	2.92004E+00	6.68071E-01
5.80117E-02	2.04800E-01	2.92119E+00	6.98250E-01
-1.81688E-01	1.59384E-01	2.92237E+00	7.28622E-01
-2.70755E-01	-4.45936E-02	2.92358E+00	7.59189E-01
-1.12532E-01	-2.11845E-01	2.92481E+00	7.89953E-01
1.50570E-01	-1.77548E-01	2.92607E+00	8.20921E-01
2.75797E-01	1.98112E-02	2.92735E+00	8.52100E-01
1.58425E-01	1.81064E-01	2.92866E+00	8.83502E-01
-7.63678E-02	1.55975E-01	2.93000E+00	9.15134E-01
-2.12134E-01	-8.52758E-03	2.93137E+00	9.46999E-01
-1.52899E-01	-1.35046E-01	2.93277E+00	9.79099E-01
9.09340E-03	-1.11597E-01	2.93422E+00	1.01144E+00
1.15722E-01	2.56074E-03	2.93569E+00	1.04402E+00
1.02150E-01	6.65527E-02	2.93720E+00	1.07684E+00
2.70316E-02	2.54432E-02	2.93873E+00	1.10993E+00
-2.70826E-02	-3.90852E-02	2.94028E+00	1.14329E+00
-4.46036E-02	-2.32504E-02	2.94187E+00	1.17694E+00
-5.87040E-02	6.40931E-02	2.94350E+00	1.21087E+00
-7.31185E-02	1.09041E-01	2.94518E+00	1.24510E+00
-4.35066E-02	3.30096E-02	2.94690E+00	1.27962E+00
5.12201E-02	-1.01487E-01	2.94867E+00	1.31443E+00
1.46335E-01	-1.48731E-01	2.95047E+00	1.34955E+00
1.37603E-01	-4.16587E-02	2.95231E+00	1.38499E+00
1.82316E-03	1.23933E-01	2.95419E+00	1.42076E+00
-1.50070E-01	1.81145E-01	2.95611E+00	1.45686E+00
-1.68873E-01	6.42696E-02	2.95808E+00	1.49332E+00
-2.41026E-02	-1.21899E-01	2.96009E+00	1.53014E+00
1.49821E-01	-2.06940E-01	2.96216E+00	1.56732E+00
1.81108E-01	-1.20803E-01	2.96428E+00	1.60487E+00
3.56185E-02	4.87008E-02	2.96645E+00	1.64280E+00
-1.45828E-01	1.53454E-01	2.96868E+00	1.68113E+00
-1.90316E-01	1.24835E-01	2.97096E+00	1.71986E+00
-6.64796E-02	1.65854E-02	2.97330E+00	1.75900E+00
9.21846E-02	-7.06107E-02	2.97569E+00	1.79855E+00
1.32872E-01	-8.46398E-02	2.97814E+00	1.83855E+00
3.84010E-02	-4.29895E-02	2.98064E+00	1.87899E+00
-7.01130E-02	1.43392E-02	2.98320E+00	1.91991E+00
-7.42566E-02	6.47042E-02	2.98583E+00	1.96131E+00
1.72397E-02	9.45694E-02	2.98853E+00	2.00320E+00
9.17069E-02	7.93734E-02	2.99132E+00	2.04559E+00
6.61089E-02	1.79298E-03	2.99419E+00	2.08849E+00
-2.33454E-02	-1.05724E-01	2.99713E+00	2.13191E+00
-7.07820E-02	-1.60613E-01	3.00015E+00	2.17586E+00
-2.51811E-02	-9.97973E-02	3.00324E+00	2.22037E+00
5.36524E-02	4.39860E-02	3.00641E+00	2.26546E+00
6.69696E-02	1.51713E-01	3.00966E+00	2.31113E+00
-9.26537E-03	1.23723E-01	3.01300E+00	2.35743E+00
-9.74656E-02	-1.84139E-02	3.01643E+00	2.40435E+00
-1.04925E-01	-1.43710E-01	3.01997E+00	2.45192E+00
-2.40006E-02	-1.34619E-01	3.02360E+00	2.50015E+00
6.35042E-02	3.97532E-06	3.02735E+00	2.54907E+00
7.69057E-02	1.36268E-01	3.03120E+00	2.59868E+00
1.87983E-02	1.57535E-01	3.03516E+00	2.64902E+00
-3.76347E-02	6.13932E-02	3.03924E+00	2.70011E+00
-3.33969E-02	-5.29773E-02	3.04344E+00	2.75197E+00
1.73260E-02	-9.23905E-02	3.04777E+00	2.80462E+00
5.37615E-02	-5.34962E-02	3.05224E+00	2.85809E+00
4.10748E-02	-2.55921E-03	3.05684E+00	2.91240E+00
3.50974E-03	9.86780E-03	3.06157E+00	2.96757E+00
-1.34848E-02	-3.51128E-03	3.06646E+00	3.02365E+00
-1.59106E-04	-3.02066E-03	3.07149E+00	3.08067E+00
1.00777E-02	1.49656E-02	3.07668E+00	3.13864E+00
-1.26167E-02	1.22753E-02	3.08205E+00	3.19762E+00
-5.33645E-02	-3.24933E-02	3.08760E+00	3.25761E+00
-6.72206E-02	-7.88552E-02	3.09333E+00	3.31867E+00
-3.17898E-02	-5.88842E-02	3.09927E+00	3.38082E+00
