jMRUI Data Textfile
 
Filename: GSH.txt
 
PointsInDataset: 2048
DatasetsInFile: 1
SamplingInterval: 5.00000E-01
ZeroOrderPhase: 0E0
BeginTime: 0E0
TransmitterFrequency: 1.27740E+08
MagneticField: 0E0
TypeOfNucleus: 0E0
NameOfPatient: 
DateOfExperiment: 
Spectrometer: Vespa-Simulation
AdditionalInfo: see 'readme' file for Vespa-Simulation output synopsis
 
  
Signal and FFT 
sig(real)	sig(imag)	fft(real)	fft(imag)
Signal 1 out of 1 in file
8.84820E+00	-8.80184E-02	1.02161E+01	-2.15670E+01
6.49170E+00	-3.52966E+00	9.69517E+00	-2.11518E+01
1.54865E+00	-5.09778E+00	9.24055E+00	-2.07437E+01
-2.52499E+00	-4.36224E+00	8.84148E+00	-2.03460E+01
-3.36027E+00	-2.30687E+00	8.48948E+00	-1.99606E+01
-1.34723E+00	-4.57708E-01	8.17770E+00	-1.95885E+01
1.05210E+00	2.26122E-01	7.90050E+00	-1.92300E+01
1.56575E+00	-1.50008E-01	7.65316E+00	-1.88853E+01
-7.44252E-02	-7.74394E-01	7.43170E+00	-1.85542E+01
-2.21285E+00	-8.90098E-01	7.23274E+00	-1.82363E+01
-2.94177E+00	-3.01958E-01	7.05341E+00	-1.79312E+01
-1.75082E+00	6.64586E-01	6.89126E+00	-1.76384E+01
2.47424E-01	1.54016E+00	6.74421E+00	-1.73571E+01
1.52026E+00	2.02100E+00	6.61045E+00	-1.70869E+01
1.50713E+00	2.01653E+00	6.48844E+00	-1.68272E+01
9.44303E-01	1.54728E+00	6.37687E+00	-1.65773E+01
9.60006E-01	6.91959E-01	6.27458E+00	-1.63368E+01
1.90003E+00	-3.75192E-01	6.18057E+00	-1.61051E+01
2.99135E+00	-1.38009E+00	6.09397E+00	-1.58817E+01
3.08927E+00	-2.06677E+00	6.01403E+00	-1.56661E+01
1.75121E+00	-2.35115E+00	5.94006E+00	-1.54578E+01
-3.52827E-01	-2.33806E+00	5.87149E+00	-1.52566E+01
-2.01061E+00	-2.15802E+00	5.80779E+00	-1.50619E+01
-2.44580E+00	-1.79309E+00	5.74853E+00	-1.48735E+01
-1.83270E+00	-1.10606E+00	5.69328E+00	-1.46910E+01
-9.74709E-01	-8.02853E-02	5.64169E+00	-1.45140E+01
-5.39251E-01	9.80052E-01	5.59344E+00	-1.43422E+01
-5.68042E-01	1.55849E+00	5.54825E+00	-1.41755E+01
-6.31900E-01	1.32834E+00	5.50586E+00	-1.40135E+01
-3.69881E-01	5.03650E-01	5.46605E+00	-1.38560E+01
1.53766E-01	-2.33807E-01	5.42860E+00	-1.37027E+01
5.85112E-01	-2.53309E-01	5.39332E+00	-1.35536E+01
7.03482E-01	4.69141E-01	5.36004E+00	-1.34083E+01
6.63526E-01	1.26196E+00	5.32860E+00	-1.32667E+01
8.05545E-01	1.26986E+00	5.29889E+00	-1.31286E+01
1.23615E+00	1.71324E-01	5.27077E+00	-1.29938E+01
1.61988E+00	-1.50348E+00	5.24414E+00	-1.28622E+01
1.42213E+00	-2.74176E+00	5.21889E+00	-1.27337E+01
4.07959E-01	-2.81057E+00	5.19493E+00	-1.26081E+01
-1.05837E+00	-1.78611E+00	5.17216E+00	-1.24853E+01
-2.20693E+00	-4.29563E-01	5.15049E+00	-1.23652E+01
-2.41460E+00	4.50406E-01	5.12986E+00	-1.22477E+01
-1.66639E+00	5.91405E-01	5.11019E+00	-1.21326E+01
-5.50386E-01	3.51888E-01	5.09143E+00	-1.20198E+01
2.01238E-01	2.71050E-01	5.07354E+00	-1.19094E+01
2.48151E-01	5.56071E-01	5.05645E+00	-1.18011E+01
-1.63466E-01	9.50485E-01	5.04011E+00	-1.16949E+01
-4.68739E-01	1.04971E+00	5.02449E+00	-1.15907E+01
-2.64997E-01	7.19444E-01	5.00954E+00	-1.14884E+01
3.86543E-01	2.12697E-01	4.99524E+00	-1.13880E+01
1.05209E+00	-1.01076E-01	4.98153E+00	-1.12894E+01
1.29456E+00	-1.06097E-01	4.96839E+00	-1.11926E+01
1.00218E+00	-4.18823E-02	4.95576E+00	-1.10975E+01
4.25576E-01	-2.42517E-01	4.94362E+00	-1.10040E+01
-6.89488E-02	-7.73434E-01	4.93194E+00	-1.09120E+01
-2.98050E-01	-1.32069E+00	4.92071E+00	-1.08215E+01
-3.64309E-01	-1.44516E+00	4.90993E+00	-1.07324E+01
-5.00894E-01	-9.69393E-01	4.89957E+00	-1.06448E+01
-8.15318E-01	-1.43191E-01	4.88961E+00	-1.05585E+01
-1.16240E+00	5.58952E-01	4.88000E+00	-1.04736E+01
-1.25519E+00	8.19972E-01	4.87072E+00	-1.03900E+01
-9.15547E-01	7.01096E-01	4.86173E+00	-1.03076E+01
-2.48726E-01	5.21312E-01	4.85305E+00	-1.02264E+01
4.09331E-01	5.30763E-01	4.84467E+00	-1.01463E+01
7.33343E-01	6.87790E-01	4.83659E+00	-1.00674E+01
6.44681E-01	7.33912E-01	4.82881E+00	-9.98947E+00
3.52545E-01	4.74611E-01	4.82131E+00	-9.91265E+00
1.70484E-01	-1.13136E-02	4.81407E+00	-9.83686E+00
2.60956E-01	-4.31697E-01	4.80707E+00	-9.76210E+00
5.14708E-01	-5.47359E-01	4.80028E+00	-9.68831E+00
6.56630E-01	-3.89513E-01	4.79371E+00	-9.61547E+00
4.82372E-01	-2.22744E-01	4.78733E+00	-9.54354E+00
2.67937E-02	-2.88344E-01	4.78115E+00	-9.47249E+00
-4.69447E-01	-5.66685E-01	4.77518E+00	-9.40229E+00
-7.55366E-01	-7.79666E-01	4.76939E+00	-9.33294E+00
-7.55273E-01	-6.35232E-01	4.76379E+00	-9.26441E+00
-5.91926E-01	-9.69065E-02	4.75836E+00	-9.19669E+00
-4.43657E-01	5.60862E-01	4.75309E+00	-9.12974E+00
-3.75766E-01	9.60660E-01	4.74797E+00	-9.06356E+00
-2.99982E-01	9.14178E-01	4.74300E+00	-8.99810E+00
-9.07210E-02	5.51489E-01	4.73817E+00	-8.93335E+00
2.59573E-01	1.88346E-01	4.73349E+00	-8.86930E+00
5.98305E-01	5.75518E-02	4.72895E+00	-8.80592E+00
7.29691E-01	1.36811E-01	4.72454E+00	-8.74321E+00
5.86147E-01	2.07914E-01	4.72027E+00	-8.68115E+00
2.95473E-01	7.68493E-02	4.71611E+00	-8.61972E+00
7.69007E-02	-2.47358E-01	4.71207E+00	-8.55891E+00
5.43993E-02	-5.65919E-01	4.70814E+00	-8.49870E+00
1.53016E-01	-6.69763E-01	4.70432E+00	-8.43908E+00
1.72538E-01	-5.17111E-01	4.70060E+00	-8.38002E+00
-2.52948E-02	-2.54549E-01	4.69698E+00	-8.32151E+00
-3.81580E-01	-7.42585E-02	4.69346E+00	-8.26355E+00
-6.77721E-01	-4.43373E-02	4.69004E+00	-8.20612E+00
-7.13853E-01	-6.45651E-02	4.68672E+00	-8.14920E+00
-4.72945E-01	2.01816E-02	4.68348E+00	-8.09278E+00
-1.29264E-01	2.59027E-01	4.68033E+00	-8.03685E+00
1.02149E-01	5.34909E-01	4.67727E+00	-7.98141E+00
1.40352E-01	6.58683E-01	4.67429E+00	-7.92643E+00
8.63714E-02	5.31368E-01	4.67139E+00	-7.87191E+00
1.09193E-01	2.29974E-01	4.66858E+00	-7.81784E+00
2.78082E-01	-5.70919E-02	4.66585E+00	-7.76421E+00
4.93087E-01	-1.85502E-01	4.66318E+00	-7.71101E+00
5.72905E-01	-1.64281E-01	4.66058E+00	-7.65824E+00
4.17871E-01	-1.26761E-01	4.65804E+00	-7.60588E+00
1.01465E-01	-1.94748E-01	4.65556E+00	-7.55390E+00
-1.88973E-01	-3.60283E-01	4.65314E+00	-7.50231E+00
-3.06381E-01	-4.89721E-01	4.65079E+00	-7.45108E+00
-2.55929E-01	-4.44384E-01	4.64850E+00	-7.40022E+00
-1.70570E-01	-2.08802E-01	4.64629E+00	-7.34972E+00
-1.79306E-01	8.77246E-02	4.64413E+00	-7.29958E+00
-2.89711E-01	2.75239E-01	4.64202E+00	-7.24979E+00
-3.87149E-01	2.81311E-01	4.63996E+00	-7.20034E+00
-3.44931E-01	1.82906E-01	4.63795E+00	-7.15120E+00
-1.41996E-01	1.28289E-01	4.63600E+00	-7.10237E+00
1.16470E-01	1.99508E-01	4.63412E+00	-7.05384E+00
2.88862E-01	3.37007E-01	4.63229E+00	-7.00562E+00
3.12872E-01	3.92406E-01	4.63053E+00	-6.95772E+00
2.44653E-01	2.62297E-01	4.62881E+00	-6.91011E+00
1.92636E-01	-1.46236E-02	4.62712E+00	-6.86280E+00
2.12308E-01	-2.82459E-01	4.62548E+00	-6.81576E+00
2.58475E-01	-3.93336E-01	4.62386E+00	-6.76898E+00
2.34423E-01	-3.24311E-01	4.62230E+00	-6.72245E+00
8.84594E-02	-1.85564E-01	4.62078E+00	-6.67617E+00
-1.31762E-01	-1.15460E-01	4.61931E+00	-6.63014E+00
-3.14270E-01	-1.56512E-01	4.61789E+00	-6.58436E+00
-3.72596E-01	-2.21660E-01	4.61651E+00	-6.53882E+00
-3.09293E-01	-1.79643E-01	4.61516E+00	-6.49351E+00
-2.00532E-01	1.73294E-02	4.61384E+00	-6.44842E+00
-1.22238E-01	2.77787E-01	4.61256E+00	-6.40354E+00
-8.81446E-02	4.38369E-01	4.61132E+00	-6.35885E+00
-5.32253E-02	3.97690E-01	4.61013E+00	-6.31436E+00
2.75018E-02	2.01236E-01	4.60899E+00	-6.27007E+00
1.45563E-01	3.81344E-03	4.60790E+00	-6.22599E+00
2.42225E-01	-5.88190E-02	4.60685E+00	-6.18211E+00
2.63324E-01	2.02858E-02	4.60583E+00	-6.13843E+00
2.11091E-01	1.20468E-01	4.60483E+00	-6.09494E+00
1.42044E-01	1.02326E-01	4.60384E+00	-6.05162E+00
1.12121E-01	-7.02150E-02	4.60287E+00	-6.00844E+00
1.21102E-01	-2.97838E-01	4.60193E+00	-5.96540E+00
1.10330E-01	-4.27626E-01	4.60103E+00	-5.92250E+00
1.88811E-02	-3.76049E-01	4.60018E+00	-5.87975E+00
-1.51426E-01	-1.89052E-01	4.59936E+00	-5.83715E+00
-3.22109E-01	6.12836E-03	4.59858E+00	-5.79468E+00
-3.91477E-01	1.08760E-01	4.59783E+00	-5.75234E+00
-3.12826E-01	1.16434E-01	4.59711E+00	-5.71012E+00
-1.32357E-01	1.03960E-01	4.59643E+00	-5.66801E+00
4.46235E-02	1.37634E-01	4.59580E+00	-5.62600E+00
1.31432E-01	2.08641E-01	4.59523E+00	-5.58412E+00
1.18769E-01	2.45381E-01	4.59471E+00	-5.54236E+00
6.98118E-02	1.88435E-01	4.59422E+00	-5.50075E+00
6.02918E-02	5.38713E-02	4.59374E+00	-5.45926E+00
1.15272E-01	-7.61464E-02	4.59326E+00	-5.41787E+00
1.92843E-01	-1.26488E-01	4.59276E+00	-5.37657E+00
2.23475E-01	-9.64282E-02	4.59226E+00	-5.33531E+00
1.68757E-01	-5.74315E-02	4.59180E+00	-5.29408E+00
5.10257E-02	-8.29516E-02	4.59138E+00	-5.25289E+00
-6.72427E-02	-1.75905E-01	4.59102E+00	-5.21176E+00
-1.33694E-01	-2.61913E-01	4.59071E+00	-5.17068E+00
-1.43539E-01	-2.55211E-01	4.59045E+00	-5.12966E+00
-1.35129E-01	-1.36565E-01	4.59024E+00	-5.08869E+00
-1.50091E-01	2.84512E-02	4.59009E+00	-5.04779E+00
-1.92471E-01	1.46529E-01	4.58998E+00	-5.00697E+00
-2.21274E-01	1.75149E-01	4.58988E+00	-4.96622E+00
-1.83166E-01	1.49722E-01	4.58977E+00	-4.92551E+00
-6.00056E-02	1.36603E-01	4.58964E+00	-4.88482E+00
1.06812E-01	1.60142E-01	4.58952E+00	-4.84412E+00
2.36644E-01	1.76433E-01	4.58942E+00	-4.80340E+00
2.62490E-01	1.20692E-01	4.58937E+00	-4.76264E+00
1.78463E-01	-1.73820E-02	4.58937E+00	-4.72187E+00
4.59646E-02	-1.66376E-01	4.58944E+00	-4.68110E+00
-4.84099E-02	-2.26710E-01	4.58955E+00	-4.64034E+00
-5.39681E-02	-1.60242E-01	4.58970E+00	-4.59957E+00
8.81871E-03	-3.22773E-02	4.58987E+00	-4.55880E+00
6.58141E-02	3.86331E-02	4.59007E+00	-4.51800E+00
4.70196E-02	-1.59710E-02	4.59029E+00	-4.47716E+00
-5.89565E-02	-1.49045E-01	4.59054E+00	-4.43628E+00
-1.95238E-01	-2.32187E-01	4.59082E+00	-4.39535E+00
-2.78723E-01	-1.63960E-01	4.59114E+00	-4.35437E+00
-2.60414E-01	4.01023E-02	4.59150E+00	-4.31333E+00
-1.57181E-01	2.54490E-01	4.59190E+00	-4.27223E+00
-3.25207E-02	3.42801E-01	4.59232E+00	-4.23106E+00
5.43918E-02	2.64511E-01	4.59277E+00	-4.18982E+00
8.80752E-02	9.97566E-02	4.59325E+00	-4.14849E+00
9.43511E-02	-2.48665E-02	4.59376E+00	-4.10705E+00
1.04500E-01	-4.15611E-02	4.59431E+00	-4.06550E+00
1.22025E-01	1.30439E-02	4.59491E+00	-4.02384E+00
1.22556E-01	4.55585E-02	4.59556E+00	-3.98207E+00
8.39491E-02	-2.55388E-03	4.59625E+00	-3.94019E+00
1.46525E-02	-1.03394E-01	4.59699E+00	-3.89818E+00
-4.90185E-02	-1.73516E-01	4.59777E+00	-3.85604E+00
-7.48343E-02	-1.53282E-01	4.59858E+00	-3.81376E+00
