jMRUI Data Textfile
 
Filename: Lac.txt
 
PointsInDataset: 2048
DatasetsInFile: 1
SamplingInterval: 5.00000E-01
ZeroOrderPhase: 0E0
BeginTime: 0E0
TransmitterFrequency: 1.27740E+08
MagneticField: 0E0
TypeOfNucleus: 0E0
NameOfPatient: 
DateOfExperiment: 
Spectrometer: Vespa-Simulation
AdditionalInfo: see 'readme' file for Vespa-Simulation output synopsis
 
  
Signal and FFT 
sig(real)	sig(imag)	fft(real)	fft(imag)
Signal 1 out of 1 in file
2.77291E+00	2.09305E-02	1.71342E+00	-3.23135E+00
9.24664E-01	-2.33089E+00	1.70574E+00	-3.20493E+00
-1.65136E+00	-1.15036E+00	1.69834E+00	-3.17903E+00
-1.03462E+00	1.44594E+00	1.69122E+00	-3.15364E+00
1.56224E+00	1.29170E+00	1.68435E+00	-3.12874E+00
1.92104E+00	-1.30612E+00	1.67773E+00	-3.10431E+00
-5.27249E-01	-2.25936E+00	1.67135E+00	-3.08034E+00
-1.99901E+00	-1.83914E-01	1.66519E+00	-3.05681E+00
-3.94835E-01	1.60138E+00	1.65925E+00	-3.03371E+00
1.55952E+00	4.17249E-01	1.65351E+00	-3.01103E+00
7.58857E-01	-1.69017E+00	1.64797E+00	-2.98875E+00
-1.48059E+00	-1.34683E+00	1.64262E+00	-2.96687E+00
-1.67387E+00	8.83029E-01	1.63745E+00	-2.94538E+00
3.58557E-01	1.56430E+00	1.63244E+00	-2.92426E+00
1.38716E+00	-1.80807E-01	1.62759E+00	-2.90349E+00
-8.32578E-02	-1.46397E+00	1.62290E+00	-2.88308E+00
-1.61234E+00	-2.75940E-01	1.61835E+00	-2.86301E+00
-7.91700E-01	1.47111E+00	1.61394E+00	-2.84326E+00
1.05223E+00	1.09441E+00	1.60966E+00	-2.82383E+00
1.09708E+00	-6.96551E-01	1.60552E+00	-2.80470E+00
-5.62799E-01	-1.07729E+00	1.60149E+00	-2.78587E+00
-1.22873E+00	4.39099E-01	1.59760E+00	-2.76732E+00
1.10228E-01	1.39028E+00	1.59384E+00	-2.74905E+00
1.32146E+00	3.14561E-01	1.59019E+00	-2.73107E+00
5.80833E-01	-1.06218E+00	1.58667E+00	-2.71338E+00
-8.48788E-01	-6.56197E-01	1.58324E+00	-2.69595E+00
-7.35286E-01	7.62157E-01	1.57991E+00	-2.67880E+00
6.46017E-01	9.22167E-01	1.57666E+00	-2.66190E+00
1.08769E+00	-3.76546E-01	1.57349E+00	-2.64525E+00
-4.95712E-02	-1.08269E+00	1.57040E+00	-2.62882E+00
-9.53441E-01	-1.71712E-01	1.56739E+00	-2.61261E+00
-2.84231E-01	8.51149E-01	1.56447E+00	-2.59663E+00
8.08145E-01	4.12936E-01	1.56164E+00	-2.58086E+00
6.03651E-01	-7.18822E-01	1.55888E+00	-2.56531E+00
-5.21054E-01	-7.62407E-01	1.55620E+00	-2.54997E+00
-8.05184E-01	2.88389E-01	1.55359E+00	-2.53484E+00
1.15846E-01	7.71820E-01	1.55105E+00	-2.51991E+00
7.48524E-01	5.55607E-03	1.54858E+00	-2.50517E+00
1.46419E-01	-7.40887E-01	1.54617E+00	-2.49062E+00
-6.85496E-01	-3.18416E-01	1.54382E+00	-2.47626E+00
-4.60665E-01	5.58366E-01	1.54154E+00	-2.46209E+00
4.08579E-01	5.32444E-01	1.53931E+00	-2.44810E+00
5.61227E-01	-2.83565E-01	1.53714E+00	-2.43428E+00
-1.72783E-01	-5.87177E-01	1.53501E+00	-2.42064E+00
-6.04099E-01	4.47855E-02	1.53293E+00	-2.40716E+00
-9.52390E-02	5.80738E-01	1.53090E+00	-2.39384E+00
5.13957E-01	2.13973E-01	1.52892E+00	-2.38068E+00
2.97022E-01	-4.30577E-01	1.52698E+00	-2.36767E+00
-3.47616E-01	-3.58389E-01	1.52510E+00	-2.35481E+00
-4.08602E-01	2.58239E-01	1.52325E+00	-2.34210E+00
1.56532E-01	4.38828E-01	1.52145E+00	-2.32953E+00
4.40028E-01	-5.33551E-02	1.51969E+00	-2.31711E+00
3.84952E-02	-4.18193E-01	1.51797E+00	-2.30482E+00
-3.82696E-01	-1.18625E-01	1.51629E+00	-2.29267E+00
-1.89589E-01	3.33338E-01	1.51465E+00	-2.28065E+00
2.68638E-01	2.45253E-01	1.51305E+00	-2.26877E+00
2.78853E-01	-1.97043E-01	1.51149E+00	-2.25702E+00
-1.28892E-01	-2.94770E-01	1.50997E+00	-2.24539E+00
-3.01092E-01	6.35462E-02	1.50847E+00	-2.23390E+00
-4.36734E-03	2.95466E-01	1.50700E+00	-2.22253E+00
2.69851E-01	6.94740E-02	1.50557E+00	-2.21127E+00
1.18379E-01	-2.27470E-01	1.50416E+00	-2.20013E+00
-1.82894E-01	-1.47940E-01	1.50278E+00	-2.18911E+00
-1.68971E-01	1.43329E-01	1.50142E+00	-2.17819E+00
1.00969E-01	1.88193E-01	1.50010E+00	-2.16739E+00
1.96956E-01	-4.94402E-02	1.49880E+00	-2.15669E+00
1.66165E-03	-1.85322E-01	1.49753E+00	-2.14610E+00
-1.59476E-01	-3.77724E-02	1.49627E+00	-2.13560E+00
-5.89571E-02	1.34748E-01	1.49505E+00	-2.12521E+00
1.14918E-01	7.75936E-02	1.49386E+00	-2.11491E+00
9.79353E-02	-8.98268E-02	1.49269E+00	-2.10471E+00
-5.43981E-02	-1.09389E-01	1.49155E+00	-2.09461E+00
-1.03309E-01	1.92449E-02	1.49044E+00	-2.08461E+00
-3.10068E-03	8.69250E-02	1.48934E+00	-2.07471E+00
7.34123E-02	1.46612E-02	1.48826E+00	-2.06489E+00
2.64436E-02	-6.40785E-02	1.48720E+00	-2.05517E+00
-4.95241E-02	-4.05479E-02	1.48617E+00	-2.04554E+00
-4.72969E-02	2.66104E-02	1.48515E+00	-2.03599E+00
4.87371E-03	4.05134E-02	1.48414E+00	-2.02653E+00
2.69892E-02	6.32422E-03	1.48315E+00	-2.01716E+00
9.60869E-03	-1.67364E-02	1.48218E+00	-2.00787E+00
-9.84963E-03	-1.33667E-02	1.48122E+00	-1.99865E+00
-1.83315E-02	-7.83501E-04	1.48027E+00	-1.98950E+00
-1.65952E-02	1.71022E-02	1.47935E+00	-1.98043E+00
5.90981E-03	3.00396E-02	1.47845E+00	-1.97144E+00
3.46851E-02	9.64357E-03	1.47757E+00	-1.96252E+00
2.24577E-02	-3.28493E-02	1.47670E+00	-1.95367E+00
-3.02700E-02	-3.26988E-02	1.47586E+00	-1.94490E+00
-4.49858E-02	2.70003E-02	1.47503E+00	-1.93620E+00
1.79419E-02	5.95115E-02	1.47422E+00	-1.92757E+00
7.05452E-02	-1.12440E-03	1.47343E+00	-1.91902E+00
1.89787E-02	-7.37123E-02	1.47265E+00	-1.91055E+00
-7.08051E-02	-3.73007E-02	1.47189E+00	-1.90214E+00
-5.39709E-02	6.56091E-02	1.47113E+00	-1.89381E+00
5.76906E-02	7.18234E-02	1.47038E+00	-1.88555E+00
9.00845E-02	-4.33423E-02	1.46964E+00	-1.87735E+00
-2.17634E-02	-1.03850E-01	1.46890E+00	-1.86921E+00
-1.09880E-01	-2.93005E-03	1.46817E+00	-1.86114E+00
-2.67569E-02	1.09952E-01	1.46745E+00	-1.85312E+00
1.06858E-01	5.02607E-02	1.46674E+00	-1.84515E+00
7.56486E-02	-9.92510E-02	1.46604E+00	-1.83723E+00
-8.33848E-02	-1.01035E-01	1.46535E+00	-1.82937E+00
-1.20905E-01	5.93481E-02	1.46468E+00	-1.82157E+00
3.21407E-02	1.32588E-01	1.46403E+00	-1.81381E+00
1.38966E-01	-5.32208E-03	1.46339E+00	-1.80612E+00
2.32189E-02	-1.42672E-01	1.46277E+00	-1.79848E+00
-1.40413E-01	-5.62441E-02	1.46218E+00	-1.79090E+00
-9.00967E-02	1.26930E-01	1.46159E+00	-1.78339E+00
1.03459E-01	1.17148E-01	1.46102E+00	-1.77595E+00
1.35348E-01	-7.72830E-02	1.46044E+00	-1.76858E+00
-5.16622E-02	-1.50145E-01	1.45985E+00	-1.76126E+00
-1.64458E-01	2.13596E-02	1.45923E+00	-1.75399E+00
-1.78585E-02	1.71608E-01	1.45862E+00	-1.74673E+00
1.63639E-01	5.94601E-02	1.45802E+00	-1.73950E+00
9.24646E-02	-1.43752E-01	1.45745E+00	-1.73229E+00
-1.22834E-01	-1.16135E-01	1.45692E+00	-1.72514E+00
-1.40041E-01	1.03312E-01	1.45643E+00	-1.71804E+00
7.51173E-02	1.67284E-01	1.45596E+00	-1.71102E+00
1.86183E-01	-3.21893E-02	1.45548E+00	-1.70408E+00
1.46817E-02	-1.85490E-01	1.45499E+00	-1.69721E+00
-1.71638E-01	-5.04847E-02	1.45447E+00	-1.69037E+00
-7.70376E-02	1.60062E-01	1.45395E+00	-1.68356E+00
1.51297E-01	1.09354E-01	1.45343E+00	-1.67678E+00
1.50076E-01	-1.28871E-01	1.45292E+00	-1.67003E+00
-8.51727E-02	-1.81008E-01	1.45243E+00	-1.66330E+00
-1.87707E-01	3.66947E-02	1.45195E+00	-1.65662E+00
2.54222E-03	1.81385E-01	1.45150E+00	-1.64998E+00
1.82437E-01	2.33329E-02	1.45106E+00	-1.64338E+00
6.22511E-02	-1.88011E-01	1.45064E+00	-1.63684E+00
-1.74113E-01	-1.15257E-01	1.45022E+00	-1.63035E+00
-1.56454E-01	1.32505E-01	1.44980E+00	-1.62391E+00
8.66317E-02	1.69066E-01	1.44938E+00	-1.61751E+00
1.70640E-01	-5.90464E-02	1.44896E+00	-1.61115E+00
-3.77078E-02	-1.86326E-01	1.44853E+00	-1.60483E+00
-2.08201E-01	-5.27510E-03	1.44811E+00	-1.59855E+00
-6.78530E-02	2.04266E-01	1.44769E+00	-1.59229E+00
1.67052E-01	1.15864E-01	1.44727E+00	-1.58608E+00
1.31632E-01	-1.27878E-01	1.44685E+00	-1.57989E+00
-1.11482E-01	-1.40384E-01	1.44644E+00	-1.57373E+00
-1.71204E-01	9.81795E-02	1.44604E+00	-1.56761E+00
5.39375E-02	2.09453E-01	1.44564E+00	-1.56152E+00
2.15362E-01	1.45013E-02	1.44525E+00	-1.55545E+00
6.47259E-02	-1.84000E-01	1.44488E+00	-1.54942E+00
-1.54974E-01	-8.00589E-02	1.44451E+00	-1.54343E+00
-9.44029E-02	1.53412E-01	1.44415E+00	-1.53747E+00
1.50743E-01	1.39353E-01	1.44380E+00	-1.53155E+00
1.92198E-01	-1.07880E-01	1.44345E+00	-1.52567E+00
-3.77971E-02	-2.06365E-01	1.44310E+00	-1.51982E+00
-1.81341E-01	-9.56949E-03	1.44275E+00	-1.51400E+00
-2.06726E-02	1.64818E-01	1.44241E+00	-1.50821E+00
1.80309E-01	3.84297E-02	1.44208E+00	-1.50246E+00
9.52296E-02	-1.89598E-01	1.44174E+00	-1.49674E+00
-1.50226E-01	-1.59320E-01	1.44141E+00	-1.49105E+00
-1.78959E-01	8.26720E-02	1.44108E+00	-1.48539E+00
4.30351E-02	1.59827E-01	1.44075E+00	-1.47977E+00
1.56891E-01	-3.96393E-02	1.44041E+00	-1.47416E+00
-2.08077E-02	-1.89950E-01	1.44008E+00	-1.46857E+00
-2.11109E-01	-4.45875E-02	1.43977E+00	-1.46301E+00
-1.15469E-01	1.76586E-01	1.43947E+00	-1.45749E+00
1.15209E-01	1.37032E-01	1.43917E+00	-1.45200E+00
1.22585E-01	-8.73884E-02	1.43886E+00	-1.44654E+00
-9.43790E-02	-1.33020E-01	1.43856E+00	-1.44111E+00
-1.82485E-01	7.66593E-02	1.43825E+00	-1.43569E+00
6.38939E-03	2.14035E-01	1.43795E+00	-1.43030E+00
1.84852E-01	6.62831E-02	1.43767E+00	-1.42494E+00
8.59079E-02	-1.32461E-01	1.43739E+00	-1.41960E+00
-1.19321E-01	-7.44568E-02	1.43712E+00	-1.41431E+00
-9.68955E-02	1.38249E-01	1.43684E+00	-1.40904E+00
1.23373E-01	1.60129E-01	1.43655E+00	-1.40380E+00
1.99450E-01	-5.20232E-02	1.43626E+00	-1.39857E+00
1.74781E-02	-1.75283E-01	1.43598E+00	-1.39336E+00
-1.33599E-01	-3.15442E-02	1.43571E+00	-1.38817E+00
-2.11864E-02	1.36558E-01	1.43545E+00	-1.38300E+00
1.67689E-01	5.33853E-02	1.43520E+00	-1.37788E+00
1.26645E-01	-1.56740E-01	1.43495E+00	-1.37278E+00
-8.77729E-02	-1.70328E-01	1.43469E+00	-1.36770E+00
-1.50180E-01	2.58513E-02	1.43443E+00	-1.36264E+00
2.03312E-02	1.19826E-01	1.43417E+00	-1.35760E+00
1.38780E-01	-3.13580E-02	1.43392E+00	-1.35258E+00
7.78049E-03	-1.81117E-01	1.43369E+00	-1.34759E+00
-1.74452E-01	-8.66782E-02	1.43345E+00	-1.34262E+00
-1.30963E-01	1.10690E-01	1.43322E+00	-1.33769E+00
5.98026E-02	1.13392E-01	1.43299E+00	-1.33278E+00
9.39717E-02	-6.48610E-02	1.43274E+00	-1.32789E+00
-7.79650E-02	-1.27445E-01	1.43250E+00	-1.32301E+00
-1.78881E-01	3.48667E-02	1.43226E+00	-1.31815E+00
-4.51206E-02	1.76146E-01	1.43203E+00	-1.31330E+00
1.19609E-01	8.62882E-02	1.43182E+00	-1.30848E+00
6.96729E-02	-8.19964E-02	1.43160E+00	-1.30369E+00
-9.85388E-02	-5.99639E-02	1.43139E+00	-1.29893E+00
-1.05373E-01	1.14595E-01	1.43117E+00	-1.29419E+00
