jMRUI Data Textfile
 
Filename: mI.txt
 
PointsInDataset: 2048
DatasetsInFile: 1
SamplingInterval: 5.00000E-01
ZeroOrderPhase: 0E0
BeginTime: 0E0
TransmitterFrequency: 1.27740E+08
MagneticField: 0E0
TypeOfNucleus: 0E0
NameOfPatient: 
DateOfExperiment: 
Spectrometer: Vespa-Simulation
AdditionalInfo: see 'readme' file for Vespa-Simulation output synopsis
 
  
Signal and FFT 
sig(real)	sig(imag)	fft(real)	fft(imag)
Signal 1 out of 1 in file
5.39182E+00	-1.28368E-01	2.97511E+00	-1.29285E+01
4.72963E+00	-2.35456E+00	2.96747E+00	-1.28236E+01
3.18569E+00	-4.02127E+00	2.96007E+00	-1.27205E+01
1.12415E+00	-4.80862E+00	2.95290E+00	-1.26191E+01
-9.95038E-01	-4.60632E+00	2.94595E+00	-1.25194E+01
-2.72683E+00	-3.52809E+00	2.93922E+00	-1.24213E+01
-3.74222E+00	-1.87193E+00	2.93269E+00	-1.23248E+01
-3.89528E+00	-3.91664E-02	2.92636E+00	-1.22298E+01
-3.24220E+00	1.56505E+00	2.92023E+00	-1.21363E+01
-2.01115E+00	2.62420E+00	2.91427E+00	-1.20443E+01
-5.34558E-01	2.97401E+00	2.90849E+00	-1.19536E+01
8.36490E-01	2.62441E+00	2.90288E+00	-1.18644E+01
1.81340E+00	1.73892E+00	2.89743E+00	-1.17765E+01
2.22794E+00	5.80836E-01	2.89214E+00	-1.16900E+01
2.05582E+00	-5.57129E-01	2.88700E+00	-1.16047E+01
1.40473E+00	-1.42122E+00	2.88201E+00	-1.15207E+01
4.74360E-01	-1.84745E+00	2.87715E+00	-1.14379E+01
-4.98514E-01	-1.78560E+00	2.87243E+00	-1.13563E+01
-1.29517E+00	-1.29515E+00	2.86785E+00	-1.12759E+01
-1.75811E+00	-5.18367E-01	2.86339E+00	-1.11966E+01
-1.81481E+00	3.59472E-01	2.85905E+00	-1.11184E+01
-1.48067E+00	1.15233E+00	2.85483E+00	-1.10413E+01
-8.44483E-01	1.70879E+00	2.85073E+00	-1.09653E+01
-4.27179E-02	1.93522E+00	2.84673E+00	-1.08904E+01
7.70243E-01	1.80493E+00	2.84284E+00	-1.08164E+01
1.44997E+00	1.35485E+00	2.83905E+00	-1.07435E+01
1.88405E+00	6.72963E-01	2.83536E+00	-1.06715E+01
2.00655E+00	-1.19827E-01	2.83176E+00	-1.06005E+01
1.80462E+00	-8.90235E-01	2.82825E+00	-1.05305E+01
1.31767E+00	-1.51303E+00	2.82482E+00	-1.04613E+01
6.29845E-01	-1.88959E+00	2.82148E+00	-1.03931E+01
-1.43331E-01	-1.96264E+00	2.81821E+00	-1.03257E+01
-8.73247E-01	-1.72555E+00	2.81502E+00	-1.02591E+01
-1.43920E+00	-1.22418E+00	2.81191E+00	-1.01935E+01
-1.74951E+00	-5.50003E-01	2.80888E+00	-1.01286E+01
-1.75859E+00	1.75167E-01	2.80593E+00	-1.00645E+01
-1.47653E+00	8.21436E-01	2.80305E+00	-1.00012E+01
-9.68090E-01	1.27577E+00	2.80026E+00	-9.93873E+00
-3.40468E-01	1.46473E+00	2.79753E+00	-9.87700E+00
2.78651E-01	1.36983E+00	2.79487E+00	-9.81601E+00
7.67925E-01	1.03122E+00	2.79227E+00	-9.75577E+00
1.03860E+00	5.38376E-01	2.78973E+00	-9.69625E+00
1.05338E+00	9.58280E-03	2.78724E+00	-9.63743E+00
8.33628E-01	-4.35479E-01	2.78481E+00	-9.57930E+00
4.52693E-01	-7.03079E-01	2.78243E+00	-9.52184E+00
1.69829E-02	-7.46450E-01	2.78010E+00	-9.46504E+00
-3.60405E-01	-5.74991E-01	2.77784E+00	-9.40890E+00
-5.87109E-01	-2.49739E-01	2.77562E+00	-9.35339E+00
-6.12937E-01	1.33626E-01	2.77347E+00	-9.29851E+00
-4.40282E-01	4.69582E-01	2.77136E+00	-9.24425E+00
-1.21224E-01	6.69102E-01	2.76931E+00	-9.19061E+00
2.57403E-01	6.80714E-01	2.76730E+00	-9.13756E+00
5.96854E-01	5.01458E-01	2.76533E+00	-9.08510E+00
8.10981E-01	1.75419E-01	2.76340E+00	-9.03322E+00
8.46480E-01	-2.19131E-01	2.76152E+00	-8.98190E+00
6.93981E-01	-5.90014E-01	2.75967E+00	-8.93114E+00
3.87961E-01	-8.53643E-01	2.75787E+00	-8.88092E+00
-3.67593E-03	-9.53845E-01	2.75611E+00	-8.83123E+00
-3.97191E-01	-8.73056E-01	2.75439E+00	-8.78208E+00
-7.12835E-01	-6.33619E-01	2.75270E+00	-8.73345E+00
-8.92107E-01	-2.89959E-01	2.75105E+00	-8.68532E+00
-9.08780E-01	8.58649E-02	2.74943E+00	-8.63770E+00
-7.71600E-01	4.21008E-01	2.74785E+00	-8.59057E+00
-5.19124E-01	6.57277E-01	2.74630E+00	-8.54392E+00
-2.08686E-01	7.61585E-01	2.74479E+00	-8.49774E+00
9.73361E-02	7.29977E-01	2.74331E+00	-8.45204E+00
3.44735E-01	5.85026E-01	2.74187E+00	-8.40680E+00
4.97148E-01	3.68102E-01	2.74045E+00	-8.36202E+00
5.41029E-01	1.28864E-01	2.73906E+00	-8.31769E+00
4.85322E-01	-8.54919E-02	2.73770E+00	-8.27379E+00
3.56775E-01	-2.39111E-01	2.73637E+00	-8.23033E+00
1.92462E-01	-3.12831E-01	2.73506E+00	-8.18730E+00
3.13442E-02	-3.05787E-01	2.73379E+00	-8.14468E+00
-9.34835E-02	-2.33316E-01	2.73253E+00	-8.10248E+00
-1.60442E-01	-1.22129E-01	2.73131E+00	-8.06069E+00
-1.62467E-01	-3.95076E-03	2.73010E+00	-8.01930E+00
-1.07033E-01	9.11267E-02	2.72891E+00	-7.97831E+00
-1.35365E-02	1.40459E-01	2.72774E+00	-7.93770E+00
9.13023E-02	1.32869E-01	2.72660E+00	-7.89746E+00
1.79165E-01	7.03850E-02	2.72548E+00	-7.85759E+00
2.25953E-01	-3.25605E-02	2.72438E+00	-7.81810E+00
2.16687E-01	-1.52303E-01	2.72332E+00	-7.77896E+00
1.48608E-01	-2.60829E-01	2.72228E+00	-7.74019E+00
3.18972E-02	-3.31596E-01	2.72127E+00	-7.70179E+00
-1.12239E-01	-3.45118E-01	2.72027E+00	-7.66373E+00
-2.55681E-01	-2.93206E-01	2.71929E+00	-7.62603E+00
-3.69107E-01	-1.81013E-01	2.71832E+00	-7.58866E+00
-4.28054E-01	-2.63546E-02	2.71737E+00	-7.55163E+00
-4.18127E-01	1.43684E-01	2.71644E+00	-7.51493E+00
-3.38184E-01	2.98046E-01	2.71552E+00	-7.47854E+00
-2.00831E-01	4.08035E-01	2.71462E+00	-7.44247E+00
-3.00352E-02	4.53179E-01	2.71375E+00	-7.40672E+00
1.43722E-01	4.25439E-01	2.71290E+00	-7.37127E+00
2.89544E-01	3.30791E-01	2.71206E+00	-7.33614E+00
3.82387E-01	1.87921E-01	2.71124E+00	-7.30132E+00
4.08009E-01	2.42136E-02	2.71044E+00	-7.26680E+00
3.65543E-01	-1.29919E-01	2.70965E+00	-7.23258E+00
2.67289E-01	-2.47284E-01	2.70886E+00	-7.19865E+00
1.35741E-01	-3.09285E-01	2.70808E+00	-7.16501E+00
-1.44817E-03	-3.09355E-01	2.70732E+00	-7.13163E+00
-1.17326E-01	-2.53713E-01	2.70657E+00	-7.09853E+00
-1.91205E-01	-1.59462E-01	2.70584E+00	-7.06570E+00
-2.12648E-01	-5.04515E-02	2.70513E+00	-7.03314E+00
-1.83144E-01	4.81403E-02	2.70444E+00	-7.00084E+00
-1.15151E-01	1.15235E-01	2.70378E+00	-6.96882E+00
-2.88684E-02	1.38243E-01	2.70312E+00	-6.93707E+00
5.25849E-02	1.15438E-01	2.70248E+00	-6.90558E+00
1.08411E-01	5.58837E-02	2.70184E+00	-6.87435E+00
1.24750E-01	-2.29734E-02	2.70121E+00	-6.84337E+00
9.76278E-02	-9.95080E-02	2.70059E+00	-6.81264E+00
3.36512E-02	-1.52961E-01	2.69997E+00	-6.78215E+00
-5.16533E-02	-1.68174E-01	2.69936E+00	-6.75189E+00
-1.37481E-01	-1.39042E-01	2.69876E+00	-6.72186E+00
-2.02536E-01	-6.98982E-02	2.69818E+00	-6.69207E+00
-2.29905E-01	2.54862E-02	2.69761E+00	-6.66251E+00
-2.10905E-01	1.26964E-01	2.69706E+00	-6.63317E+00
-1.47096E-01	2.12539E-01	2.69652E+00	-6.60406E+00
-4.99505E-02	2.63295E-01	2.69601E+00	-6.57517E+00
6.16519E-02	2.67567E-01	2.69551E+00	-6.54650E+00
1.65610E-01	2.23508E-01	2.69503E+00	-6.51807E+00
2.41436E-01	1.39419E-01	2.69456E+00	-6.48986E+00
2.74685E-01	3.17891E-02	2.69409E+00	-6.46189E+00
2.59903E-01	-7.83866E-02	2.69362E+00	-6.43413E+00
2.01556E-01	-1.70238E-01	2.69314E+00	-6.40659E+00
1.12715E-01	-2.27442E-01	2.69264E+00	-6.37924E+00
1.18756E-02	-2.41483E-01	2.69213E+00	-6.35207E+00
-8.12020E-02	-2.12998E-01	2.69164E+00	-6.32508E+00
-1.49747E-01	-1.51080E-01	2.69117E+00	-6.29826E+00
-1.83271E-01	-7.07558E-02	2.69074E+00	-6.27161E+00
-1.79253E-01	1.06228E-02	2.69035E+00	-6.24517E+00
-1.42955E-01	7.72425E-02	2.68999E+00	-6.21895E+00
-8.55689E-02	1.17906E-01	2.68965E+00	-6.19294E+00
-2.12963E-02	1.27901E-01	2.68931E+00	-6.16715E+00
3.58939E-02	1.09241E-01	2.68895E+00	-6.14156E+00
7.50705E-02	6.94814E-02	2.68858E+00	-6.11618E+00
9.01588E-02	1.95574E-02	2.68817E+00	-6.09096E+00
8.05412E-02	-2.87651E-02	2.68776E+00	-6.06590E+00
5.05198E-02	-6.52208E-02	2.68734E+00	-6.04099E+00
7.93755E-03	-8.27651E-02	2.68694E+00	-6.01622E+00
-3.75754E-02	-7.84352E-02	2.68657E+00	-5.99161E+00
-7.63968E-02	-5.34591E-02	2.68623E+00	-5.96717E+00
-1.00438E-01	-1.27185E-02	2.68591E+00	-5.94290E+00
-1.04281E-01	3.61933E-02	2.68562E+00	-5.91882E+00
-8.59135E-02	8.41490E-02	2.68534E+00	-5.89493E+00
-4.70653E-02	1.21791E-01	2.68505E+00	-5.87122E+00
6.87388E-03	1.40925E-01	2.68475E+00	-5.84768E+00
6.73403E-02	1.35870E-01	2.68443E+00	-5.82429E+00
1.23662E-01	1.04721E-01	2.68411E+00	-5.80105E+00
1.64645E-01	5.02072E-02	2.68379E+00	-5.77795E+00
1.80602E-01	-2.01207E-02	2.68349E+00	-5.75500E+00
1.65497E-01	-9.46178E-02	2.68319E+00	-5.73219E+00
1.18768E-01	-1.59299E-01	2.68291E+00	-5.70953E+00
4.62424E-02	-2.00490E-01	2.68264E+00	-5.68703E+00
-4.01832E-02	-2.07797E-01	2.68237E+00	-5.66467E+00
-1.24412E-01	-1.76894E-01	2.68211E+00	-5.64247E+00
-1.89264E-01	-1.11213E-01	2.68185E+00	-5.62041E+00
-2.20281E-01	-2.20105E-02	2.68160E+00	-5.59849E+00
-2.09320E-01	7.34704E-02	2.68135E+00	-5.57671E+00
-1.56989E-01	1.55493E-01	2.68111E+00	-5.55507E+00
-7.31640E-02	2.06257E-01	2.68088E+00	-5.53357E+00
2.47911E-02	2.14231E-01	2.68065E+00	-5.51221E+00
1.15678E-01	1.77184E-01	2.68042E+00	-5.49099E+00
1.79377E-01	1.03146E-01	2.68020E+00	-5.46991E+00
2.01693E-01	8.83715E-03	2.67998E+00	-5.44895E+00
1.77915E-01	-8.41201E-02	2.67976E+00	-5.42813E+00
1.14132E-01	-1.54329E-01	2.67955E+00	-5.40743E+00
2.58857E-02	-1.85797E-01	2.67934E+00	-5.38686E+00
-6.55973E-02	-1.71852E-01	2.67913E+00	-5.36642E+00
-1.38527E-01	-1.16719E-01	2.67894E+00	-5.34610E+00
-1.75892E-01	-3.44288E-02	2.67874E+00	-5.32591E+00
-1.69533E-01	5.47506E-02	2.67856E+00	-5.30585E+00
-1.21943E-01	1.29363E-01	2.67837E+00	-5.28591E+00
-4.53998E-02	1.72007E-01	2.67818E+00	-5.26609E+00
4.13096E-02	1.73418E-01	2.67800E+00	-5.24639E+00
1.17691E-01	1.34392E-01	2.67782E+00	-5.22681E+00
1.66470E-01	6.51547E-02	2.67765E+00	-5.20734E+00
1.77570E-01	-1.75446E-02	2.67748E+00	-5.18799E+00
1.50064E-01	-9.47576E-02	2.67731E+00	-5.16875E+00
9.17840E-02	-1.49905E-01	2.67715E+00	-5.14963E+00
1.68692E-02	-1.72426E-01	2.67698E+00	-5.13062E+00
-5.79879E-02	-1.59687E-01	2.67682E+00	-5.11172E+00
-1.17524E-01	-1.16836E-01	2.67667E+00	-5.09293E+00
-1.51164E-01	-5.48354E-02	2.67652E+00	-5.07424E+00
-1.54736E-01	1.25665E-02	2.67638E+00	-5.05567E+00
-1.30574E-01	7.21409E-02	2.67625E+00	-5.03720E+00
-8.61073E-02	1.13858E-01	2.67611E+00	-5.01885E+00
-3.15615E-02	1.32425E-01	2.67598E+00	-5.00060E+00
2.25219E-02	1.27521E-01	2.67585E+00	-4.98246E+00
6.73239E-02	1.02939E-01	2.67572E+00	-4.96443E+00
9.69990E-02	6.50708E-02	2.67560E+00	-4.94649E+00
1.08977E-01	2.12982E-02	2.67547E+00	-4.92865E+00
