jMRUI Data Textfile
 
Filename: PE.txt
 
PointsInDataset: 2048
DatasetsInFile: 1
SamplingInterval: 5.00000E-01
ZeroOrderPhase: 0E0
BeginTime: 0E0
TransmitterFrequency: 1.27740E+08
MagneticField: 0E0
TypeOfNucleus: 0E0
NameOfPatient: 
DateOfExperiment: 
Spectrometer: Vespa-Simulation
AdditionalInfo: see 'readme' file for Vespa-Simulation output synopsis
 
  
Signal and FFT 
sig(real)	sig(imag)	fft(real)	fft(imag)
Signal 1 out of 1 in file
2.70247E+00	-2.87113E-05	1.75013E+00	-6.80649E+00
2.37081E+00	-1.12470E+00	1.74220E+00	-6.74601E+00
1.57428E+00	-1.92748E+00	1.73452E+00	-6.68663E+00
5.51472E-01	-2.23565E+00	1.72707E+00	-6.62833E+00
-4.14510E-01	-2.03136E+00	1.71986E+00	-6.57107E+00
-1.08654E+00	-1.44541E+00	1.71285E+00	-6.51482E+00
-1.34296E+00	-7.03611E-01	1.70605E+00	-6.45956E+00
-1.20447E+00	-4.63959E-02	1.69945E+00	-6.40526E+00
-8.12376E-01	3.49840E-01	1.69304E+00	-6.35188E+00
-3.68917E-01	4.23764E-01	1.68682E+00	-6.29941E+00
-6.20649E-02	2.37325E-01	1.68078E+00	-6.24783E+00
-1.45857E-03	-5.85885E-02	1.67490E+00	-6.19710E+00
-1.86268E-01	-2.86412E-01	1.66919E+00	-6.14721E+00
-5.13885E-01	-3.08988E-01	1.66364E+00	-6.09813E+00
-8.23803E-01	-7.81336E-02	1.65824E+00	-6.04985E+00
-9.59479E-01	3.50894E-01	1.65298E+00	-6.00234E+00
-8.25792E-01	8.42101E-01	1.64787E+00	-5.95559E+00
-4.22624E-01	1.22876E+00	1.64289E+00	-5.90957E+00
1.55790E-01	1.37225E+00	1.63804E+00	-5.86427E+00
7.53834E-01	1.20920E+00	1.63333E+00	-5.81966E+00
1.20694E+00	7.71461E-01	1.62873E+00	-5.77575E+00
1.39502E+00	1.73665E-01	1.62425E+00	-5.73249E+00
1.27893E+00	-4.25853E-01	1.61988E+00	-5.68989E+00
9.08761E-01	-8.76374E-01	1.61562E+00	-5.64792E+00
4.03012E-01	-1.08066E+00	1.61147E+00	-5.60658E+00
-9.28432E-02	-1.02069E+00	1.60742E+00	-5.56583E+00
-4.53285E-01	-7.56184E-01	1.60347E+00	-5.52568E+00
-6.09507E-01	-3.98345E-01	1.59961E+00	-5.48611E+00
-5.64695E-01	-6.93816E-02	1.59585E+00	-5.44710E+00
-3.84518E-01	1.37824E-01	1.59217E+00	-5.40864E+00
-1.68030E-01	1.86530E-01	1.58859E+00	-5.37072E+00
-1.03050E-02	1.01650E-01	1.58509E+00	-5.33333E+00
2.99837E-02	-4.60317E-02	1.58166E+00	-5.29645E+00
-5.24724E-02	-1.69860E-01	1.57832E+00	-5.26008E+00
-2.12596E-01	-2.00166E-01	1.57506E+00	-5.22420E+00
-3.75213E-01	-1.08536E-01	1.57187E+00	-5.18881E+00
-4.64399E-01	8.41430E-02	1.56875E+00	-5.15389E+00
-4.31126E-01	3.17424E-01	1.56570E+00	-5.11944E+00
-2.69890E-01	5.14186E-01	1.56272E+00	-5.08544E+00
-1.93734E-02	6.08037E-01	1.55980E+00	-5.05188E+00
2.51937E-01	5.65510E-01	1.55694E+00	-5.01876E+00
4.69430E-01	3.95993E-01	1.55414E+00	-4.98605E+00
5.76610E-01	1.46883E-01	1.55141E+00	-4.95377E+00
5.51955E-01	-1.13425E-01	1.54873E+00	-4.92190E+00
4.13242E-01	-3.18085E-01	1.54611E+00	-4.89042E+00
2.08960E-01	-4.22190E-01	1.54355E+00	-4.85934E+00
6.96132E-04	-4.14356E-01	1.54103E+00	-4.82865E+00
-1.57033E-01	-3.16639E-01	1.53857E+00	-4.79833E+00
-2.32613E-01	-1.73790E-01	1.53616E+00	-4.76837E+00
-2.24143E-01	-3.64743E-02	1.53380E+00	-4.73878E+00
-1.55934E-01	5.55031E-02	1.53149E+00	-4.70955E+00
-6.69013E-02	8.43941E-02	1.52923E+00	-4.68066E+00
4.37917E-03	5.71157E-02	1.52701E+00	-4.65212E+00
3.26350E-02	-6.91630E-04	1.52484E+00	-4.62392E+00
1.27679E-02	-5.61549E-02	1.52270E+00	-4.59605E+00
-4.09960E-02	-8.17169E-02	1.52061E+00	-4.56850E+00
-1.02500E-01	-6.43685E-02	1.51855E+00	-4.54127E+00
-1.44329E-01	-8.79550E-03	1.51654E+00	-4.51435E+00
-1.47768E-01	6.59602E-02	1.51456E+00	-4.48773E+00
-1.08690E-01	1.34451E-01	1.51263E+00	-4.46141E+00
-3.78439E-02	1.74161E-01	1.51072E+00	-4.43539E+00
4.39673E-02	1.72913E-01	1.50886E+00	-4.40966E+00
1.13572E-01	1.32023E-01	1.50703E+00	-4.38421E+00
1.53106E-01	6.46532E-02	1.50523E+00	-4.35904E+00
1.55055E-01	-9.52593E-03	1.50346E+00	-4.33415E+00
1.23365E-01	-7.11179E-02	1.50173E+00	-4.30952E+00
7.07416E-02	-1.06812E-01	1.50003E+00	-4.28516E+00
1.35835E-02	-1.12398E-01	1.49837E+00	-4.26106E+00
-3.34352E-02	-9.24899E-02	1.49674E+00	-4.23722E+00
-6.12977E-02	-5.75279E-02	1.49514E+00	-4.21364E+00
-6.80707E-02	-1.95487E-02	1.49356E+00	-4.19031E+00
-5.78082E-02	1.16396E-02	1.49201E+00	-4.16722E+00
-3.78527E-02	3.07045E-02	1.49047E+00	-4.14437E+00
-1.57765E-02	3.70435E-02	1.48897E+00	-4.12176E+00
2.87296E-03	3.34338E-02	1.48748E+00	-4.09937E+00
1.54466E-02	2.40044E-02	1.48603E+00	-4.07721E+00
2.17523E-02	1.24647E-02	1.48460E+00	-4.05527E+00
2.28904E-02	1.21608E-03	1.48320E+00	-4.03355E+00
2.01112E-02	-8.56193E-03	1.48183E+00	-4.01205E+00
1.42562E-02	-1.62451E-02	1.48047E+00	-3.99076E+00
5.91062E-03	-2.11012E-02	1.47914E+00	-3.96968E+00
-4.02282E-03	-2.21136E-02	1.47784E+00	-3.94881E+00
-1.38343E-02	-1.84157E-02	1.47656E+00	-3.92815E+00
-2.10596E-02	-1.00778E-02	1.47531E+00	-3.90769E+00
-2.32034E-02	1.27291E-03	1.47407E+00	-3.88744E+00
-1.88686E-02	1.24684E-02	1.47284E+00	-3.86739E+00
-8.75271E-03	1.96557E-02	1.47162E+00	-3.84752E+00
4.06949E-03	1.97536E-02	1.47042E+00	-3.82783E+00
1.48882E-02	1.19334E-02	1.46924E+00	-3.80832E+00
1.89861E-02	-1.57076E-03	1.46808E+00	-3.78900E+00
1.35949E-02	-1.58119E-02	1.46695E+00	-3.76985E+00
-6.25460E-04	-2.46857E-02	1.46583E+00	-3.75089E+00
-1.92869E-02	-2.32175E-02	1.46473E+00	-3.73209E+00
-3.54337E-02	-9.73238E-03	1.46365E+00	-3.71347E+00
-4.18954E-02	1.29822E-02	1.46259E+00	-3.69501E+00
-3.40271E-02	3.81168E-02	1.46156E+00	-3.67673E+00
-1.18106E-02	5.68711E-02	1.46053E+00	-3.65862E+00
1.95590E-02	6.14775E-02	1.45952E+00	-3.64068E+00
5.09682E-02	4.81474E-02	1.45852E+00	-3.62290E+00
7.22462E-02	1.88270E-02	1.45753E+00	-3.60528E+00
7.56321E-02	-1.89633E-02	1.45655E+00	-3.58780E+00
5.86547E-02	-5.43028E-02	1.45558E+00	-3.57048E+00
2.53217E-02	-7.63817E-02	1.45463E+00	-3.55330E+00
-1.49026E-02	-7.81728E-02	1.45369E+00	-3.53627E+00
-5.00474E-02	-5.89464E-02	1.45278E+00	-3.51938E+00
-6.95820E-02	-2.47160E-02	1.45188E+00	-3.50265E+00
-6.79795E-02	1.36466E-02	1.45099E+00	-3.48605E+00
-4.66330E-02	4.39954E-02	1.45011E+00	-3.46960E+00
-1.34296E-02	5.70123E-02	1.44925E+00	-3.45329E+00
1.99268E-02	4.93763E-02	1.44840E+00	-3.43712E+00
4.19443E-02	2.48844E-02	1.44756E+00	-3.42108E+00
4.53049E-02	-6.89209E-03	1.44673E+00	-3.40518E+00
2.94032E-02	-3.39686E-02	1.44592E+00	-3.38941E+00
5.38197E-04	-4.61632E-02	1.44511E+00	-3.37377E+00
-3.03200E-02	-3.86916E-02	1.44432E+00	-3.35826E+00
-5.13994E-02	-1.38735E-02	1.44353E+00	-3.34287E+00
-5.43021E-02	1.96472E-02	1.44276E+00	-3.32761E+00
-3.70049E-02	4.99191E-02	1.44199E+00	-3.31248E+00
-4.63806E-03	6.58582E-02	1.44124E+00	-3.29746E+00
3.22361E-02	6.11537E-02	1.44049E+00	-3.28256E+00
6.12468E-02	3.65189E-02	1.43976E+00	-3.26778E+00
7.24842E-02	-4.96954E-04	1.43904E+00	-3.25312E+00
6.19122E-02	-3.80492E-02	1.43832E+00	-3.23857E+00
3.27711E-02	-6.40288E-02	1.43762E+00	-3.22414E+00
-5.52446E-03	-7.01690E-02	1.43693E+00	-3.20982E+00
-4.05999E-02	-5.48188E-02	1.43624E+00	-3.19561E+00
-6.13000E-02	-2.34378E-02	1.43557E+00	-3.18151E+00
-6.14257E-02	1.33274E-02	1.43490E+00	-3.16753E+00
-4.17290E-02	4.33030E-02	1.43424E+00	-3.15365E+00
-9.52420E-03	5.69041E-02	1.43358E+00	-3.13987E+00
2.39330E-02	5.03009E-02	1.43294E+00	-3.12619E+00
4.73181E-02	2.65544E-02	1.43230E+00	-3.11262E+00
5.30718E-02	-5.59496E-03	1.43168E+00	-3.09916E+00
3.98490E-02	-3.48462E-02	1.43106E+00	-3.08579E+00
1.27948E-02	-5.12443E-02	1.43045E+00	-3.07253E+00
-1.83947E-02	-4.95232E-02	1.42984E+00	-3.05936E+00
-4.29083E-02	-3.07592E-02	1.42924E+00	-3.04629E+00
-5.25382E-02	-1.81801E-03	1.42865E+00	-3.03330E+00
-4.44046E-02	2.71724E-02	1.42806E+00	-3.02042E+00
-2.17742E-02	4.63616E-02	1.42749E+00	-3.00762E+00
7.23453E-03	4.95436E-02	1.42693E+00	-2.99493E+00
3.25733E-02	3.61655E-02	1.42637E+00	-2.98233E+00
4.57556E-02	1.13465E-02	1.42581E+00	-2.96982E+00
4.27098E-02	-1.60416E-02	1.42526E+00	-2.95739E+00
2.50400E-02	-3.65167E-02	1.42472E+00	-2.94505E+00
-6.98156E-04	-4.32482E-02	1.42418E+00	-2.93280E+00
-2.53718E-02	-3.42973E-02	1.42366E+00	-2.92063E+00
-4.04626E-02	-1.31411E-02	1.42314E+00	-2.90855E+00
-4.09428E-02	1.26724E-02	1.42263E+00	-2.89656E+00
-2.68752E-02	3.42046E-02	1.42212E+00	-2.88465E+00
-3.23647E-03	4.41881E-02	1.42161E+00	-2.87282E+00
2.19115E-02	3.94214E-02	1.42111E+00	-2.86107E+00
4.02343E-02	2.17024E-02	1.42062E+00	-2.84940E+00
4.59022E-02	-2.94618E-03	1.42013E+00	-2.83781E+00
3.74401E-02	-2.64398E-02	1.41966E+00	-2.82630E+00
1.80322E-02	-4.13944E-02	1.41918E+00	-2.81487E+00
-5.73966E-03	-4.35319E-02	1.41872E+00	-2.80352E+00
-2.62321E-02	-3.29365E-02	1.41826E+00	-2.79225E+00
-3.73133E-02	-1.37944E-02	1.41780E+00	-2.78105E+00
-3.62987E-02	7.21802E-03	1.41734E+00	-2.76992E+00
-2.46284E-02	2.32996E-02	1.41689E+00	-2.75887E+00
-7.12738E-03	2.97777E-02	1.41644E+00	-2.74789E+00
9.82424E-03	2.55356E-02	1.41600E+00	-2.73697E+00
2.05368E-02	1.31498E-02	1.41557E+00	-2.72613E+00
2.18887E-02	-2.22466E-03	1.41514E+00	-2.71536E+00
1.42218E-02	-1.47741E-02	1.41472E+00	-2.70467E+00
1.01069E-03	-2.00553E-02	1.41430E+00	-2.69404E+00
-1.25188E-02	-1.64402E-02	1.41388E+00	-2.68348E+00
-2.12761E-02	-5.51744E-03	1.41347E+00	-2.67299E+00
-2.20494E-02	8.61718E-03	1.41306E+00	-2.66257E+00
-1.45101E-02	2.08833E-02	1.41265E+00	-2.65220E+00
-1.18833E-03	2.69861E-02	1.41226E+00	-2.64190E+00
1.35105E-02	2.48226E-02	1.41186E+00	-2.63167E+00
2.48598E-02	1.50777E-02	1.41148E+00	-2.62151E+00
2.93848E-02	8.52281E-04	1.41109E+00	-2.61141E+00
2.59145E-02	-1.34713E-02	1.41071E+00	-2.60137E+00
1.58213E-02	-2.37178E-02	1.41033E+00	-2.59139E+00
2.40966E-03	-2.72310E-02	1.40995E+00	-2.58147E+00
-1.02735E-02	-2.35952E-02	1.40958E+00	-2.57161E+00
-1.87699E-02	-1.45754E-02	1.40922E+00	-2.56182E+00
-2.12354E-02	-3.36133E-03	1.40886E+00	-2.55208E+00
-1.78513E-02	6.57325E-03	1.40850E+00	-2.54241E+00
-1.05427E-02	1.25940E-02	1.40814E+00	-2.53279E+00
-2.16727E-03	1.36306E-02	1.40779E+00	-2.52323E+00
4.50744E-03	1.03263E-02	1.40744E+00	-2.51372E+00
7.68035E-03	4.60935E-03	1.40710E+00	-2.50426E+00
6.97322E-03	-1.10190E-03	1.40677E+00	-2.49487E+00
3.36534E-03	-4.75800E-03	1.40643E+00	-2.48554E+00
-1.31031E-03	-5.30925E-03	1.40610E+00	-2.47627E+00
-5.09163E-03	-2.92712E-03	1.40577E+00	-2.46704E+00
