jMRUI Data Textfile
 
Filename: Ala.txt
 
PointsInDataset: 2048
DatasetsInFile: 1
SamplingInterval: 5.00000E-01
ZeroOrderPhase: 0E0
BeginTime: 0E0
TransmitterFrequency: 1.27740E+08
MagneticField: 0E0
TypeOfNucleus: 0E0
NameOfPatient: 
DateOfExperiment: 
Spectrometer: Vespa-Simulation
AdditionalInfo: see 'readme' file for Vespa-Simulation output synopsis
 
  
Signal and FFT 
sig(real)	sig(imag)	fft(real)	fft(imag)
Signal 1 out of 1 in file
2.02193E+00	-2.15639E-03	1.03272E+00	-1.73916E+00
6.83911E-01	-1.81362E+00	1.03183E+00	-1.73114E+00
-1.36442E+00	-1.09454E+00	1.03114E+00	-1.72263E+00
-1.23714E+00	9.66166E-01	1.03085E+00	-1.71451E+00
7.09810E-01	1.33987E+00	1.03046E+00	-1.70671E+00
1.53213E+00	-4.31042E-01	1.02962E+00	-1.69904E+00
2.92378E-02	-1.68804E+00	1.02890E+00	-1.69075E+00
-1.60181E+00	-5.98397E-01	1.02879E+00	-1.68278E+00
-1.04804E+00	1.24823E+00	1.02869E+00	-1.67534E+00
8.08202E-01	1.24957E+00	1.02784E+00	-1.66827E+00
1.28761E+00	-4.55750E-01	1.02687E+00	-1.66008E+00
-1.84912E-01	-1.31692E+00	1.02708E+00	-1.65220E+00
-1.36438E+00	-1.27603E-01	1.02722E+00	-1.64519E+00
-5.30709E-01	1.31529E+00	1.02620E+00	-1.63876E+00
1.07493E+00	9.21506E-01	1.02504E+00	-1.63007E+00
1.15860E+00	-6.92506E-01	1.02649E+00	-1.62293E+00
-3.08002E-01	-1.21016E+00	1.02555E+00	-1.61723E+00
-1.16278E+00	6.42041E-03	1.02410E+00	-1.60931E+00
-2.42447E-01	1.10219E+00	1.02476E+00	-1.60191E+00
1.02058E+00	5.05640E-01	1.02424E+00	-1.59548E+00
7.82047E-01	-8.50320E-01	1.02407E+00	-1.58837E+00
-5.64954E-01	-9.94152E-01	1.02356E+00	-1.58226E+00
-1.07141E+00	2.23035E-01	1.02240E+00	-1.57454E+00
-8.58687E-02	1.01928E+00	1.02350E+00	-1.56740E+00
9.01382E-01	3.19940E-01	1.02325E+00	-1.56237E+00
5.01510E-01	-7.68055E-01	1.02124E+00	-1.55496E+00
-6.15479E-01	-6.65440E-01	1.02227E+00	-1.54747E+00
-8.06123E-01	4.12422E-01	1.02226E+00	-1.54186E+00
1.54828E-01	8.79531E-01	1.02155E+00	-1.53568E+00
8.50704E-01	1.13906E-01	1.02082E+00	-1.52874E+00
3.34986E-01	-7.31693E-01	1.02132E+00	-1.52200E+00
-5.71389E-01	-4.81159E-01	1.02129E+00	-1.51626E+00
-5.69573E-01	4.11341E-01	1.02078E+00	-1.51030E+00
2.55123E-01	6.30412E-01	1.02014E+00	-1.50379E+00
6.67265E-01	-8.20494E-02	1.02038E+00	-1.49728E+00
1.12353E-01	-6.52751E-01	1.02040E+00	-1.49157E+00
-5.63659E-01	-2.95379E-01	1.02003E+00	-1.48576E+00
-4.20979E-01	4.15556E-01	1.01949E+00	-1.47968E+00
2.55921E-01	4.72551E-01	1.01946E+00	-1.47344E+00
4.75589E-01	-1.21862E-01	1.01936E+00	-1.46777E+00
-1.04003E-02	-4.64840E-01	1.01893E+00	-1.46202E+00
-4.44154E-01	-1.03786E-01	1.01841E+00	-1.45594E+00
-2.25000E-01	3.87301E-01	1.01839E+00	-1.44972E+00
2.78761E-01	3.21013E-01	1.01847E+00	-1.44396E+00
3.55894E-01	-1.43804E-01	1.01842E+00	-1.43827E+00
-2.92662E-02	-3.31285E-01	1.01830E+00	-1.43260E+00
-2.84871E-01	-4.27169E-02	1.01839E+00	-1.42690E+00
-9.12803E-02	2.47326E-01	1.01842E+00	-1.42168E+00
2.11136E-01	1.43936E-01	1.01798E+00	-1.41636E+00
1.96417E-01	-1.49509E-01	1.01765E+00	-1.41075E+00
-6.00977E-02	-2.16236E-01	1.01750E+00	-1.40514E+00
-1.84915E-01	-2.30633E-02	1.01739E+00	-1.39976E+00
-6.48250E-02	1.24501E-01	1.01713E+00	-1.39433E+00
7.46288E-02	6.66716E-02	1.01694E+00	-1.38885E+00
5.96388E-02	-4.95890E-02	1.01691E+00	-1.38334E+00
-2.93925E-02	-6.30043E-02	1.01699E+00	-1.37818E+00
-6.20853E-02	-5.90113E-03	1.01666E+00	-1.37305E+00
-4.44785E-02	3.22670E-02	1.01644E+00	-1.36768E+00
-2.35300E-02	5.44045E-02	1.01636E+00	-1.36230E+00
2.25726E-02	7.26478E-02	1.01641E+00	-1.35713E+00
8.78380E-02	2.92710E-02	1.01630E+00	-1.35203E+00
7.06285E-02	-7.45015E-02	1.01622E+00	-1.34693E+00
-5.68996E-02	-9.58387E-02	1.01612E+00	-1.34181E+00
-1.23079E-01	4.35043E-02	1.01615E+00	-1.33677E+00
1.65393E-02	1.62738E-01	1.01613E+00	-1.33190E+00
1.97349E-01	4.24268E-02	1.01594E+00	-1.32708E+00
1.25027E-01	-1.98309E-01	1.01567E+00	-1.32203E+00
-1.57095E-01	-2.01437E-01	1.01572E+00	-1.31709E+00
-2.50344E-01	9.21142E-02	1.01553E+00	-1.31232E+00
2.48074E-02	2.75937E-01	1.01535E+00	-1.30741E+00
2.92961E-01	4.35354E-02	1.01521E+00	-1.30250E+00
1.26483E-01	-3.01133E-01	1.01517E+00	-1.29760E+00
-2.81150E-01	-2.27450E-01	1.01514E+00	-1.29282E+00
-3.26808E-01	2.16141E-01	1.01505E+00	-1.28815E+00
1.11873E-01	3.96264E-01	1.01480E+00	-1.28330E+00
4.22711E-01	7.44907E-03	1.01495E+00	-1.27842E+00
1.21556E-01	-4.14617E-01	1.01499E+00	-1.27388E+00
-3.85551E-01	-2.28633E-01	1.01494E+00	-1.26931E+00
-3.36845E-01	3.34995E-01	1.01479E+00	-1.26472E+00
2.48401E-01	4.43598E-01	1.01478E+00	-1.26010E+00
5.26706E-01	-1.16535E-01	1.01470E+00	-1.25559E+00
4.69715E-02	-5.58567E-01	1.01464E+00	-1.25108E+00
-5.29684E-01	-2.10334E-01	1.01448E+00	-1.24653E+00
-3.47628E-01	4.56105E-01	1.01458E+00	-1.24199E+00
3.60871E-01	4.57206E-01	1.01450E+00	-1.23776E+00
5.52696E-01	-2.48259E-01	1.01425E+00	-1.23332E+00
-1.01607E-01	-6.34123E-01	1.01408E+00	-1.22878E+00
-6.73382E-01	-8.86725E-02	1.01412E+00	-1.22426E+00
-2.97634E-01	6.36522E-01	1.01409E+00	-1.21998E+00
5.21929E-01	4.76028E-01	1.01395E+00	-1.21564E+00
5.93077E-01	-3.67813E-01	1.01376E+00	-1.21115E+00
-2.13318E-01	-6.62914E-01	1.01393E+00	-1.20660E+00
-7.17462E-01	5.64202E-02	1.01413E+00	-1.20254E+00
-1.36104E-01	7.53830E-01	1.01395E+00	-1.19846E+00
7.23764E-01	3.71413E-01	1.01369E+00	-1.19417E+00
5.96745E-01	-5.87926E-01	1.01373E+00	-1.18964E+00
-3.72717E-01	-7.40660E-01	1.01397E+00	-1.18559E+00
-7.87102E-01	1.52992E-01	1.01389E+00	-1.18156E+00
-2.82787E-02	7.88750E-01	1.01372E+00	-1.17748E+00
7.93408E-01	2.04673E-01	1.01373E+00	-1.17326E+00
4.30831E-01	-7.71651E-01	1.01371E+00	-1.16927E+00
-6.44970E-01	-6.88927E-01	1.01359E+00	-1.16528E+00
-8.80834E-01	3.90549E-01	1.01331E+00	-1.16123E+00
9.08331E-02	9.29835E-01	1.01319E+00	-1.15690E+00
8.70293E-01	1.47594E-01	1.01329E+00	-1.15282E+00
3.13482E-01	-8.03513E-01	1.01330E+00	-1.14880E+00
-7.64261E-01	-4.93571E-01	1.01319E+00	-1.14478E+00
-7.42838E-01	6.67993E-01	1.01326E+00	-1.14074E+00
4.19547E-01	9.83651E-01	1.01322E+00	-1.13679E+00
1.07521E+00	-5.43442E-02	1.01323E+00	-1.13285E+00
2.75260E-01	-9.79859E-01	1.01317E+00	-1.12888E+00
-8.14374E-01	-4.68347E-01	1.01324E+00	-1.12490E+00
-5.89605E-01	7.06224E-01	1.01335E+00	-1.12102E+00
6.28685E-01	7.73076E-01	1.01348E+00	-1.11731E+00
1.02578E+00	-4.33549E-01	1.01338E+00	-1.11365E+00
-5.53249E-02	-1.18679E+00	1.01326E+00	-1.10985E+00
-1.11211E+00	-3.71370E-01	1.01325E+00	-1.10609E+00
-6.47480E-01	8.60015E-01	1.01312E+00	-1.10247E+00
6.30221E-01	7.41414E-01	1.01285E+00	-1.09868E+00
8.17854E-01	-5.17453E-01	1.01270E+00	-1.09478E+00
-3.91773E-01	-1.01099E+00	1.01266E+00	-1.09089E+00
-1.22501E+00	7.40949E-02	1.01269E+00	-1.08712E+00
-4.05206E-01	1.23081E+00	1.01261E+00	-1.08342E+00
9.53736E-01	8.03048E-01	1.01245E+00	-1.07960E+00
9.41251E-01	-5.85628E-01	1.01251E+00	-1.07571E+00
-3.60085E-01	-9.19241E-01	1.01257E+00	-1.07202E+00
-9.78219E-01	2.64123E-01	1.01254E+00	-1.06825E+00
6.22932E-02	1.17437E+00	1.01266E+00	-1.06438E+00
1.28199E+00	3.80035E-01	1.01308E+00	-1.06062E+00
8.83765E-01	-1.06987E+00	1.01361E+00	-1.05735E+00
-6.10224E-01	-1.14308E+00	1.01370E+00	-1.05459E+00
-1.09323E+00	2.14461E-01	1.01287E+00	-1.05148E+00
5.78366E-02	9.86567E-01	1.01240E+00	-1.04754E+00
1.06277E+00	3.27482E-02	1.01232E+00	-1.04381E+00
3.41595E-01	-1.22494E+00	1.01216E+00	-1.04013E+00
-1.14822E+00	-8.67005E-01	1.01202E+00	-1.03631E+00
-1.27921E+00	7.01272E-01	1.01213E+00	-1.03234E+00
1.43300E-01	1.30907E+00	1.01269E+00	-1.02853E+00
1.08159E+00	1.73456E-01	1.01346E+00	-1.02547E+00
2.32607E-01	-9.56702E-01	1.01334E+00	-1.02283E+00
-1.06334E+00	-3.59737E-01	1.01291E+00	-1.01961E+00
-7.81648E-01	1.12298E+00	1.01260E+00	-1.01626E+00
8.05759E-01	1.29683E+00	1.01224E+00	-1.01278E+00
1.49461E+00	-1.76419E-01	1.01197E+00	-1.00913E+00
3.49670E-01	-1.26186E+00	1.01196E+00	-1.00537E+00
-9.29621E-01	-5.04214E-01	1.01216E+00	-1.00189E+00
-4.89662E-01	8.55299E-01	1.01215E+00	-9.98497E-01
9.63591E-01	7.01789E-01	1.01222E+00	-9.94980E-01
1.19351E+00	-8.41901E-01	1.01247E+00	-9.91615E-01
-2.84931E-01	-1.56998E+00	1.01258E+00	-9.88508E-01
-1.46822E+00	-4.05599E-01	1.01245E+00	-9.85365E-01
-7.65789E-01	1.01890E+00	1.01224E+00	-9.82007E-01
6.91044E-01	7.33857E-01	1.01226E+00	-9.78452E-01
7.11527E-01	-7.01554E-01	1.01256E+00	-9.75180E-01
-7.42581E-01	-1.02903E+00	1.01253E+00	-9.72175E-01
-1.49302E+00	3.87735E-01	1.01236E+00	-9.68807E-01
-3.31646E-01	1.60679E+00	1.01260E+00	-9.65430E-01
1.19704E+00	9.24028E-01	1.01285E+00	-9.62442E-01
1.02941E+00	-6.47029E-01	1.01280E+00	-9.59634E-01
-4.24588E-01	-8.57011E-01	1.01241E+00	-9.56656E-01
-9.01448E-01	4.97954E-01	1.01205E+00	-9.53318E-01
3.89839E-01	1.28999E+00	1.01199E+00	-9.49884E-01
1.59711E+00	1.87122E-01	1.01201E+00	-9.46716E-01
9.24575E-01	-1.37688E+00	1.01179E+00	-9.43445E-01
-7.40873E-01	-1.27259E+00	1.01180E+00	-9.39938E-01
-1.11394E+00	2.36740E-01	1.01215E+00	-9.36610E-01
1.70456E-01	8.97349E-01	1.01241E+00	-9.33711E-01
1.05056E+00	-2.34625E-01	1.01232E+00	-9.30777E-01
7.59849E-02	-1.41884E+00	1.01224E+00	-9.27636E-01
-1.45285E+00	-7.85928E-01	1.01234E+00	-9.24481E-01
-1.36986E+00	9.15275E-01	1.01246E+00	-9.21583E-01
2.03958E-01	1.39192E+00	1.01229E+00	-9.18675E-01
1.04300E+00	1.29799E-01	1.01212E+00	-9.15510E-01
6.00413E-02	-8.86152E-01	1.01230E+00	-9.12342E-01
-1.12959E+00	-9.42333E-02	1.01237E+00	-9.09650E-01
-5.96334E-01	1.35644E+00	1.01191E+00	-9.06783E-01
1.06216E+00	1.28875E+00	1.01154E+00	-9.03301E-01
1.57635E+00	-3.16551E-01	1.01192E+00	-8.99761E-01
2.98850E-01	-1.28503E+00	1.01247E+00	-8.97067E-01
-8.72806E-01	-4.04140E-01	1.01223E+00	-8.94483E-01
-2.77556E-01	8.41022E-01	1.01206E+00	-8.91430E-01
1.09585E+00	4.71615E-01	1.01190E+00	-8.88370E-01
1.07863E+00	-1.07692E+00	1.01201E+00	-8.85176E-01
-4.90080E-01	-1.58681E+00	1.01223E+00	-8.82345E-01
-1.51358E+00	-2.92289E-01	1.01207E+00	-8.79605E-01
-6.77705E-01	1.00989E+00	1.01192E+00	-8.76422E-01
6.64134E-01	5.79225E-01	1.01223E+00	-8.73421E-01
4.95962E-01	-7.56099E-01	1.01225E+00	-8.70681E-01
-9.13308E-01	-8.48424E-01	1.01243E+00	-8.67893E-01
-1.41963E+00	6.06877E-01	1.01220E+00	-8.65411E-01
-1.49420E-01	1.61693E+00	1.01170E+00	-8.62408E-01
