jMRUI Data Textfile
 
Filename: Cho.txt
 
PointsInDataset: 2048
DatasetsInFile: 1
SamplingInterval: 5.00000E-01
ZeroOrderPhase: 0E0
BeginTime: 0E0
TransmitterFrequency: 1.27740E+08
MagneticField: 0E0
TypeOfNucleus: 0E0
NameOfPatient: 
DateOfExperiment: 
Spectrometer: Vespa-Simulation
AdditionalInfo: see 'readme' file for Vespa-Simulation output synopsis
 
  
Signal and FFT 
sig(real)	sig(imag)	fft(real)	fft(imag)
Signal 1 out of 1 in file
8.99590E+00	-6.49680E-08	4.61601E+00	-1.43366E+01
7.34914E+00	-5.11439E+00	4.61497E+00	-1.42603E+01
3.09617E+00	-8.35632E+00	4.61376E+00	-1.41845E+01
-2.22137E+00	-8.58686E+00	4.61254E+00	-1.41094E+01
-6.69653E+00	-5.75203E+00	4.61129E+00	-1.40350E+01
-8.74079E+00	-8.91945E-01	4.61010E+00	-1.39611E+01
-7.64774E+00	4.24065E+00	4.60916E+00	-1.38878E+01
-3.83681E+00	7.81220E+00	4.60844E+00	-1.38154E+01
1.30696E+00	8.56332E+00	4.60761E+00	-1.37439E+01
5.93605E+00	6.25262E+00	4.60654E+00	-1.36731E+01
8.40403E+00	1.73321E+00	4.60550E+00	-1.36028E+01
7.85082E+00	-3.36190E+00	4.60459E+00	-1.35332E+01
4.50225E+00	-7.20970E+00	4.60349E+00	-1.34645E+01
-4.20805E-01	-8.44934E+00	4.60207E+00	-1.33960E+01
-5.14729E+00	-6.66321E+00	4.60112E+00	-1.33277E+01
-7.99300E+00	-2.51705E+00	4.60048E+00	-1.32605E+01
-7.96057E+00	2.48788E+00	4.59956E+00	-1.31940E+01
-5.08874E+00	6.55802E+00	4.59885E+00	-1.31279E+01
-4.28851E-01	8.25031E+00	4.59811E+00	-1.30628E+01
4.33999E+00	6.98358E+00	4.59704E+00	-1.29982E+01
7.51556E+00	3.23766E+00	4.59595E+00	-1.29338E+01
7.98014E+00	-1.62773E+00	4.59506E+00	-1.28699E+01
5.59366E+00	-5.86641E+00	4.59439E+00	-1.28066E+01
1.23444E+00	-7.97229E+00	4.59384E+00	-1.27440E+01
-3.52380E+00	-7.21437E+00	4.59328E+00	-1.26821E+01
-6.97994E+00	-3.89016E+00	4.59253E+00	-1.26209E+01
-7.91345E+00	7.90191E-01	4.59173E+00	-1.25600E+01
-6.01526E+00	5.14425E+00	4.59109E+00	-1.24997E+01
-1.98937E+00	7.62195E+00	4.59037E+00	-1.24403E+01
2.70785E+00	7.35729E+00	4.58909E+00	-1.23813E+01
6.39456E+00	4.47073E+00	4.58765E+00	-1.23221E+01
7.76522E+00	1.68590E-02	4.58683E+00	-1.22631E+01
6.35288E+00	-4.40070E+00	4.58629E+00	-1.22048E+01
2.68790E+00	-7.20639E+00	4.58619E+00	-1.21472E+01
-1.90107E+00	-7.41481E+00	4.58598E+00	-1.20909E+01
-5.76812E+00	-4.97635E+00	4.58470E+00	-1.20352E+01
-7.54084E+00	-7.86070E-01	4.58300E+00	-1.19790E+01
-6.60680E+00	3.64475E+00	4.58195E+00	-1.19226E+01
-3.32504E+00	6.73313E+00	4.58161E+00	-1.18668E+01
1.11155E+00	7.39034E+00	4.58143E+00	-1.18119E+01
5.10921E+00	5.40513E+00	4.58121E+00	-1.17577E+01
7.24628E+00	1.51080E+00	4.58103E+00	-1.17041E+01
6.77815E+00	-2.88516E+00	4.58064E+00	-1.16514E+01
3.89669E+00	-6.21003E+00	4.57959E+00	-1.15991E+01
-3.47103E-01	-7.28794E+00	4.57813E+00	-1.15467E+01
-4.42656E+00	-5.75592E+00	4.57703E+00	-1.14939E+01
-6.88796E+00	-2.18549E+00	4.57655E+00	-1.14417E+01
-6.86891E+00	2.13030E+00	4.57620E+00	-1.13902E+01
-4.39990E+00	5.64495E+00	4.57584E+00	-1.13393E+01
-3.85184E-01	7.11233E+00	4.57544E+00	-1.12890E+01
3.72851E+00	6.02870E+00	4.57467E+00	-1.12392E+01
6.47274E+00	2.80509E+00	4.57371E+00	-1.11895E+01
6.88186E+00	-1.38821E+00	4.57274E+00	-1.11399E+01
4.83236E+00	-5.04601E+00	4.57191E+00	-1.10905E+01
1.07881E+00	-6.86885E+00	4.57136E+00	-1.10412E+01
-3.02339E+00	-6.22409E+00	4.57127E+00	-1.09924E+01
-6.00781E+00	-3.36542E+00	4.57148E+00	-1.09443E+01
-6.82055E+00	6.66109E-01	4.57166E+00	-1.08971E+01
-5.19270E+00	4.42125E+00	4.57144E+00	-1.08507E+01
-1.72829E+00	6.56329E+00	4.57071E+00	-1.08045E+01
2.31915E+00	6.34363E+00	4.56956E+00	-1.07585E+01
5.50044E+00	3.86336E+00	4.56830E+00	-1.07123E+01
6.68909E+00	2.90455E-02	4.56729E+00	-1.06658E+01
5.48037E+00	-3.77873E+00	4.56701E+00	-1.06197E+01
2.32849E+00	-6.20191E+00	4.56707E+00	-1.05745E+01
-1.62334E+00	-6.38958E+00	4.56670E+00	-1.05300E+01
-4.95815E+00	-4.29638E+00	4.56609E+00	-1.04858E+01
-6.49221E+00	-6.90919E-01	4.56521E+00	-1.04419E+01
-5.69574E+00	3.12614E+00	4.56387E+00	-1.03980E+01
-2.87551E+00	5.79114E+00	4.56254E+00	-1.03536E+01
9.43188E-01	6.36489E+00	4.56189E+00	-1.03090E+01
4.38850E+00	4.66280E+00	4.56225E+00	-1.02646E+01
6.23510E+00	1.31420E+00	4.56348E+00	-1.02212E+01
5.83996E+00	-2.47085E+00	4.56505E+00	-1.01792E+01
3.36561E+00	-5.33789E+00	4.56612E+00	-1.01389E+01
-2.85212E-01	-6.27319E+00	4.56578E+00	-1.00997E+01
-3.79876E+00	-4.96198E+00	4.56357E+00	-1.00605E+01
-5.92342E+00	-1.89361E+00	4.56005E+00	-1.00198E+01
-5.91468E+00	1.82038E+00	4.55696E+00	-9.97679E+00
-3.79636E+00	4.84901E+00	4.55682E+00	-9.93271E+00
-3.44694E-01	6.11865E+00	4.55927E+00	-9.89206E+00
3.19650E+00	5.19364E+00	4.55819E+00	-9.85415E+00
5.56312E+00	2.42516E+00	4.55528E+00	-9.81266E+00
5.92250E+00	-1.18123E+00	4.55586E+00	-9.76983E+00
4.16602E+00	-4.33134E+00	4.55856E+00	-9.72942E+00
9.40714E-01	-5.90589E+00	4.56094E+00	-9.69163E+00
-2.58870E+00	-5.35860E+00	4.56179E+00	-9.65539E+00
-5.16031E+00	-2.90550E+00	4.56084E+00	-9.61944E+00
-5.86644E+00	5.60073E-01	4.55859E+00	-9.58273E+00
-4.47326E+00	3.79208E+00	4.55596E+00	-9.54479E+00
-1.49818E+00	5.64001E+00	4.55396E+00	-9.50585E+00
1.98206E+00	5.45831E+00	4.55307E+00	-9.46667E+00
4.72152E+00	3.33159E+00	4.55315E+00	-9.42801E+00
5.75017E+00	3.73727E-02	4.55373E+00	-9.39025E+00
4.71794E+00	-3.23784E+00	4.55435E+00	-9.35344E+00
2.01305E+00	-5.32634E+00	4.55455E+00	-9.31747E+00
-1.38337E+00	-5.49465E+00	4.55398E+00	-9.28168E+00
-4.25313E+00	-3.70155E+00	4.55322E+00	-9.24546E+00
-5.57781E+00	-6.05935E-01	4.55291E+00	-9.20928E+00
-4.90020E+00	2.67558E+00	4.55270E+00	-9.17350E+00
-2.48148E+00	4.97064E+00	4.55258E+00	-9.13795E+00
7.98573E-01	5.47034E+00	4.55255E+00	-9.10283E+00
3.76151E+00	4.01416E+00	4.55244E+00	-9.06814E+00
5.35393E+00	1.14053E+00	4.55204E+00	-9.03382E+00
5.02115E+00	-2.11166E+00	4.55135E+00	-8.99958E+00
2.90091E+00	-4.57867E+00	4.55048E+00	-8.96532E+00
-2.33194E-01	-5.38854E+00	4.54965E+00	-8.93091E+00
-3.25331E+00	-4.26856E+00	4.54901E+00	-8.89649E+00
-5.08340E+00	-1.63717E+00	4.54870E+00	-8.86218E+00
-5.08247E+00	1.55210E+00	4.54867E+00	-8.82827E+00
-3.26888E+00	4.15654E+00	4.54872E+00	-8.79482E+00
-3.07288E-01	5.25286E+00	4.54857E+00	-8.76178E+00
2.73472E+00	4.46490E+00	4.54830E+00	-8.72884E+00
4.77133E+00	2.09241E+00	4.54802E+00	-8.69612E+00
5.08625E+00	-1.00303E+00	4.54765E+00	-8.66343E+00
3.58402E+00	-3.71020E+00	4.54759E+00	-8.63085E+00
8.18506E-01	-5.06735E+00	4.54765E+00	-8.59886E+00
-2.21173E+00	-4.60392E+00	4.54726E+00	-8.56723E+00
-4.42320E+00	-2.50306E+00	4.54669E+00	-8.53540E+00
-5.03527E+00	4.69762E-01	4.54643E+00	-8.50359E+00
-3.84554E+00	3.24554E+00	4.54632E+00	-8.47222E+00
-1.29605E+00	4.83646E+00	4.54592E+00	-8.44117E+00
1.69044E+00	4.68672E+00	4.54539E+00	-8.40999E+00
4.04447E+00	2.86694E+00	4.54522E+00	-8.37888E+00
4.93273E+00	4.28387E-02	4.54513E+00	-8.34840E+00
4.05301E+00	-2.76867E+00	4.54437E+00	-8.31824E+00
1.73652E+00	-4.56487E+00	4.54324E+00	-8.28733E+00
-1.17632E+00	-4.71520E+00	4.54318E+00	-8.25583E+00
-3.64072E+00	-3.18239E+00	4.54425E+00	-8.22550E+00
-4.78219E+00	-5.30079E-01	4.54463E+00	-8.19649E+00
-4.20695E+00	2.28514E+00	4.54430E+00	-8.16754E+00
-2.13705E+00	4.25741E+00	4.54338E+00	-8.13872E+00
6.74438E-01	4.69170E+00	4.54188E+00	-8.10893E+00
3.21743E+00	3.44841E+00	4.54163E+00	-8.07839E+00
4.58766E+00	9.87649E-01	4.54244E+00	-8.04891E+00
4.30810E+00	-1.80086E+00	4.54284E+00	-8.02067E+00
2.49489E+00	-3.91934E+00	4.54234E+00	-7.99257E+00
-1.89778E-01	-4.61894E+00	4.54167E+00	-7.96407E+00
-2.78022E+00	-3.66441E+00	4.54119E+00	-7.93556E+00
-4.35331E+00	-1.41254E+00	4.54071E+00	-7.90718E+00
-4.35815E+00	1.32064E+00	4.54020E+00	-7.87876E+00
-2.80867E+00	3.55555E+00	4.53999E+00	-7.85030E+00
-2.72995E-01	4.50011E+00	4.54008E+00	-7.82217E+00
2.33472E+00	3.83035E+00	4.54022E+00	-7.79444E+00
4.08363E+00	1.80148E+00	4.54025E+00	-7.76711E+00
4.35892E+00	-8.49710E-01	4.54001E+00	-7.73993E+00
3.07692E+00	-3.17135E+00	4.53972E+00	-7.71268E+00
7.10425E-01	-4.33875E+00	4.53957E+00	-7.68569E+00
-1.88574E+00	-3.94714E+00	4.53902E+00	-7.65886E+00
-3.78340E+00	-2.15178E+00	4.53861E+00	-7.63154E+00
-4.31277E+00	3.92975E-01	4.53883E+00	-7.60451E+00
-3.29894E+00	2.77190E+00	4.53911E+00	-7.57816E+00
-1.11876E+00	4.13867E+00	4.53890E+00	-7.55219E+00
1.43853E+00	4.01577E+00	4.53849E+00	-7.52596E+00
3.45713E+00	2.46197E+00	4.53828E+00	-7.49980E+00
4.22257E+00	4.57807E-02	4.53811E+00	-7.47386E+00
3.47444E+00	-2.36247E+00	4.53774E+00	-7.44809E+00
1.49477E+00	-3.90400E+00	4.53742E+00	-7.42207E+00
-9.98070E-01	-4.03778E+00	4.53747E+00	-7.39628E+00
-3.10975E+00	-2.73043E+00	4.53763E+00	-7.37087E+00
-4.09140E+00	-4.62445E-01	4.53747E+00	-7.34586E+00
-3.60409E+00	1.94762E+00	4.53734E+00	-7.32070E+00
-1.83640E+00	3.63885E+00	4.53730E+00	-7.29592E+00
5.68376E-01	4.01536E+00	4.53683E+00	-7.27151E+00
2.74621E+00	2.95612E+00	4.53596E+00	-7.24685E+00
3.92274E+00	8.53361E-01	4.53532E+00	-7.22171E+00
3.68857E+00	-1.53230E+00	4.53501E+00	-7.19671E+00
2.14140E+00	-3.34766E+00	4.53500E+00	-7.17201E+00
-1.53792E-01	-3.95085E+00	4.53478E+00	-7.14766E+00
-2.37096E+00	-3.13903E+00	4.53449E+00	-7.12327E+00
-3.72020E+00	-1.21599E+00	4.53427E+00	-7.09888E+00
-3.72912E+00	1.12125E+00	4.53426E+00	-7.07468E+00
-2.40811E+00	3.03498E+00	4.53418E+00	-7.05072E+00
-2.41922E-01	3.84703E+00	4.53410E+00	-7.02678E+00
1.98877E+00	3.27910E+00	4.53421E+00	-7.00298E+00
3.48766E+00	1.54756E+00	4.53446E+00	-6.97961E+00
3.72762E+00	-7.18305E-01	4.53438E+00	-6.95672E+00
2.63585E+00	-2.70505E+00	4.53372E+00	-6.93387E+00
6.15195E-01	-3.70700E+00	4.53268E+00	-6.91038E+00
-1.60434E+00	-3.37684E+00	4.53244E+00	-6.88622E+00
-3.22923E+00	-1.84584E+00	4.53310E+00	-6.86280E+00
-3.68608E+00	3.27648E-01	4.53346E+00	-6.84020E+00
-2.82391E+00	2.36239E+00	4.53350E+00	-6.81771E+00
-9.63492E-01	3.53401E+00	4.53349E+00	-6.79535E+00
1.22159E+00	3.43348E+00	4.53326E+00	-6.77323E+00
2.94882E+00	2.10958E+00	4.53275E+00	-6.75106E+00
3.60692E+00	4.68875E-02	4.53219E+00	-6.72870E+00
2.97209E+00	-2.01152E+00	4.53178E+00	-6.70632E+00
1.28406E+00	-3.33159E+00	4.53141E+00	-6.68406E+00
-8.44763E-01	-3.45032E+00	4.53101E+00	-6.66178E+00
-2.65064E+00	-2.33746E+00	4.53075E+00	-6.63947E+00
