jMRUI Data Textfile
 
Filename: ETA.txt
 
PointsInDataset: 2048
DatasetsInFile: 1
SamplingInterval: 5.00000E-01
ZeroOrderPhase: 0E0
BeginTime: 0E0
TransmitterFrequency: 1.27740E+08
MagneticField: 0E0
TypeOfNucleus: 0E0
NameOfPatient: 
DateOfExperiment: 
Spectrometer: Vespa-Simulation
AdditionalInfo: see 'readme' file for Vespa-Simulation output synopsis
 
  
Signal and FFT 
sig(real)	sig(imag)	fft(real)	fft(imag)
Signal 1 out of 1 in file
1.98521E+00	-2.57208E-04	1.07544E+00	-4.31690E+00
1.72806E+00	-9.18332E-01	1.07395E+00	-4.28446E+00
1.06052E+00	-1.57031E+00	1.07245E+00	-4.25258E+00
1.90068E-01	-1.79176E+00	1.07099E+00	-4.22113E+00
-6.27536E-01	-1.55936E+00	1.06957E+00	-4.19021E+00
-1.17463E+00	-9.89292E-01	1.06812E+00	-4.15969E+00
-1.33958E+00	-2.88015E-01	1.06675E+00	-4.12956E+00
-1.14333E+00	3.24194E-01	1.06544E+00	-4.09992E+00
-7.18019E-01	6.88228E-01	1.06412E+00	-4.07066E+00
-2.48660E-01	7.53004E-01	1.06289E+00	-4.04179E+00
9.83566E-02	5.79544E-01	1.06172E+00	-4.01338E+00
2.33007E-01	3.04149E-01	1.06056E+00	-3.98538E+00
1.65564E-01	7.74391E-02	1.05943E+00	-3.95778E+00
-9.52704E-03	3.74209E-03	1.05828E+00	-3.93058E+00
-1.60751E-01	1.03569E-01	1.05710E+00	-3.90369E+00
-1.77524E-01	3.11779E-01	1.05601E+00	-3.87709E+00
-1.62099E-02	5.09821E-01	1.05500E+00	-3.85090E+00
2.82851E-01	5.77678E-01	1.05399E+00	-3.82506E+00
6.12405E-01	4.44510E-01	1.05304E+00	-3.79955E+00
8.41351E-01	1.18554E-01	1.05211E+00	-3.77442E+00
8.66293E-01	-3.14284E-01	1.05117E+00	-3.74965E+00
6.51803E-01	-7.21516E-01	1.05020E+00	-3.72515E+00
2.44651E-01	-9.72134E-01	1.04930E+00	-3.70094E+00
-2.42305E-01	-9.83272E-01	1.04839E+00	-3.67706E+00
-6.69519E-01	-7.48473E-01	1.04750E+00	-3.65344E+00
-9.18245E-01	-3.38173E-01	1.04668E+00	-3.63006E+00
-9.28804E-01	1.26405E-01	1.04593E+00	-3.60705E+00
-7.16653E-01	5.15265E-01	1.04516E+00	-3.58434E+00
-3.62054E-01	7.31862E-01	1.04441E+00	-3.56193E+00
2.11599E-02	7.40837E-01	1.04363E+00	-3.53980E+00
3.25263E-01	5.72848E-01	1.04285E+00	-3.51793E+00
4.82221E-01	3.06845E-01	1.04205E+00	-3.49627E+00
4.80239E-01	3.81315E-02	1.04130E+00	-3.47484E+00
3.59242E-01	-1.55211E-01	1.04056E+00	-3.45360E+00
1.89228E-01	-2.35649E-01	1.04000E+00	-3.43261E+00
4.11476E-02	-2.12157E-01	1.03946E+00	-3.41203E+00
-3.84381E-02	-1.28892E-01	1.03880E+00	-3.39173E+00
-4.01981E-02	-4.27324E-02	1.03807E+00	-3.37161E+00
1.07236E-02	6.60680E-04	1.03739E+00	-3.35162E+00
7.01054E-02	-1.67402E-02	1.03674E+00	-3.33187E+00
9.53965E-02	-8.16890E-02	1.03612E+00	-3.31232E+00
6.33371E-02	-1.58660E-01	1.03550E+00	-3.29294E+00
-2.18780E-02	-2.06619E-01	1.03508E+00	-3.27377E+00
-1.31996E-01	-1.96367E-01	1.03461E+00	-3.25503E+00
-2.27134E-01	-1.21789E-01	1.03402E+00	-3.23646E+00
-2.71685E-01	-1.39630E-03	1.03345E+00	-3.21801E+00
-2.47386E-01	1.29425E-01	1.03289E+00	-3.19980E+00
-1.59065E-01	2.31713E-01	1.03227E+00	-3.18173E+00
-3.17475E-02	2.76332E-01	1.03174E+00	-3.16375E+00
9.88450E-02	2.52763E-01	1.03128E+00	-3.14602E+00
1.98348E-01	1.70793E-01	1.03084E+00	-3.12851E+00
2.43864E-01	5.55108E-02	1.03042E+00	-3.11116E+00
2.29157E-01	-6.17573E-02	1.03006E+00	-3.09413E+00
1.64024E-01	-1.52895E-01	1.02952E+00	-3.07727E+00
6.92113E-02	-1.99862E-01	1.02901E+00	-3.06049E+00
-3.06159E-02	-1.97379E-01	1.02852E+00	-3.04389E+00
-1.13319E-01	-1.51757E-01	1.02798E+00	-3.02740E+00
-1.63471E-01	-7.72718E-02	1.02756E+00	-3.01097E+00
-1.73995E-01	8.13243E-03	1.02728E+00	-2.99479E+00
-1.45834E-01	8.65249E-02	1.02698E+00	-2.97890E+00
-8.66713E-02	1.42633E-01	1.02662E+00	-2.96319E+00
-9.33185E-03	1.65724E-01	1.02622E+00	-2.94764E+00
7.00131E-02	1.51093E-01	1.02578E+00	-2.93226E+00
1.34212E-01	1.01264E-01	1.02525E+00	-2.91697E+00
1.68269E-01	2.64080E-02	1.02474E+00	-2.90169E+00
1.63001E-01	-5.67696E-02	1.02432E+00	-2.88652E+00
1.18208E-01	-1.28231E-01	1.02398E+00	-2.87146E+00
4.39810E-02	-1.69552E-01	1.02379E+00	-2.85655E+00
-4.09637E-02	-1.69455E-01	1.02372E+00	-2.84197E+00
-1.14076E-01	-1.27928E-01	1.02353E+00	-2.82781E+00
-1.55767E-01	-5.71005E-02	1.02290E+00	-2.81373E+00
-1.55903E-01	2.19852E-02	1.02235E+00	-2.79936E+00
-1.17583E-01	8.60882E-02	1.02201E+00	-2.78514E+00
-5.63298E-02	1.17774E-01	1.02173E+00	-2.77108E+00
5.36668E-03	1.11695E-01	1.02154E+00	-2.75719E+00
4.64413E-02	7.65912E-02	1.02136E+00	-2.74362E+00
5.54470E-02	3.18552E-02	1.02097E+00	-2.73013E+00
3.52402E-02	-3.38061E-04	1.02062E+00	-2.71669E+00
1.99833E-03	-4.39076E-03	1.02025E+00	-2.70335E+00
-2.13908E-02	2.15803E-02	1.01988E+00	-2.69003E+00
-1.52469E-02	6.39779E-02	1.01970E+00	-2.67669E+00
2.75811E-02	9.84663E-02	1.01983E+00	-2.66383E+00
9.69102E-02	9.97539E-02	1.01948E+00	-2.65137E+00
1.67328E-01	5.27946E-02	1.01891E+00	-2.63870E+00
2.06946E-01	-3.91287E-02	1.01843E+00	-2.62591E+00
1.89775E-01	-1.52957E-01	1.01811E+00	-2.61317E+00
1.07108E-01	-2.52277E-01	1.01795E+00	-2.60055E+00
-2.67383E-02	-2.99674E-01	1.01788E+00	-2.58817E+00
-1.77048E-01	-2.70676E-01	1.01779E+00	-2.57601E+00
-2.99180E-01	-1.64010E-01	1.01763E+00	-2.56404E+00
-3.53576E-01	-4.05906E-03	1.01734E+00	-2.55217E+00
-3.19825E-01	1.65860E-01	1.01701E+00	-2.54031E+00
-2.04530E-01	2.97379E-01	1.01668E+00	-2.52850E+00
-3.99126E-02	3.53147E-01	1.01637E+00	-2.51673E+00
1.26655E-01	3.19474E-01	1.01612E+00	-2.50501E+00
2.48544E-01	2.10712E-01	1.01595E+00	-2.49342E+00
2.95363E-01	6.38310E-02	1.01579E+00	-2.48199E+00
2.62584E-01	-7.49062E-02	1.01561E+00	-2.47067E+00
1.71704E-01	-1.66214E-01	1.01540E+00	-2.45945E+00
6.10575E-02	-1.91025E-01	1.01521E+00	-2.44832E+00
-2.91184E-02	-1.55783E-01	1.01497E+00	-2.43727E+00
-7.16988E-02	-8.80877E-02	1.01476E+00	-2.42629E+00
-6.20581E-02	-2.44833E-02	1.01452E+00	-2.41540E+00
-1.83721E-02	4.73321E-03	1.01433E+00	-2.40454E+00
2.71098E-02	-1.22835E-02	1.01418E+00	-2.39380E+00
4.22511E-02	-6.43944E-02	1.01402E+00	-2.38322E+00
9.03716E-03	-1.22373E-01	1.01377E+00	-2.37269E+00
-6.81449E-02	-1.51226E-01	1.01357E+00	-2.36218E+00
-1.63272E-01	-1.25099E-01	1.01340E+00	-2.35178E+00
-2.38270E-01	-3.88840E-02	1.01322E+00	-2.34147E+00
-2.57781E-01	8.81328E-02	1.01305E+00	-2.33124E+00
-2.03396E-01	2.18041E-01	1.01288E+00	-2.32112E+00
-8.18988E-02	3.07537E-01	1.01264E+00	-2.31106E+00
7.57465E-02	3.23619E-01	1.01241E+00	-2.30100E+00
2.24431E-01	2.55872E-01	1.01223E+00	-2.29099E+00
3.20171E-01	1.20769E-01	1.01211E+00	-2.28106E+00
3.35164E-01	-4.35949E-02	1.01207E+00	-2.27122E+00
2.67034E-01	-1.90425E-01	1.01205E+00	-2.26163E+00
1.39043E-01	-2.79876E-01	1.01184E+00	-2.25219E+00
-8.56446E-03	-2.91931E-01	1.01152E+00	-2.24268E+00
-1.32748E-01	-2.31857E-01	1.01119E+00	-2.23312E+00
-2.02100E-01	-1.26627E-01	1.01096E+00	-2.22347E+00
-2.06255E-01	-1.40454E-02	1.01097E+00	-2.21392E+00
-1.57300E-01	7.11477E-02	1.01104E+00	-2.20468E+00
-8.30695E-02	1.08947E-01	1.01095E+00	-2.19560E+00
-1.53335E-02	9.94325E-02	1.01078E+00	-2.18658E+00
2.23590E-02	6.02273E-02	1.01049E+00	-2.17759E+00
2.26723E-02	1.76293E-02	1.01013E+00	-2.16849E+00
-4.45922E-03	-4.81695E-03	1.00993E+00	-2.15930E+00
-3.76160E-02	4.26498E-03	1.00991E+00	-2.15024E+00
-5.38351E-02	4.02059E-02	1.00990E+00	-2.14137E+00
-3.85560E-02	8.51038E-02	1.00992E+00	-2.13262E+00
8.31855E-03	1.15870E-01	1.00984E+00	-2.12408E+00
7.24498E-02	1.14064E-01	1.00958E+00	-2.11553E+00
1.30884E-01	7.35766E-02	1.00933E+00	-2.10689E+00
1.61137E-01	3.24009E-03	1.00916E+00	-2.09826E+00
1.49894E-01	-7.64207E-02	1.00904E+00	-2.08974E+00
9.79941E-02	-1.40802E-01	1.00888E+00	-2.08126E+00
1.99569E-02	-1.70139E-01	1.00882E+00	-2.07278E+00
-6.14026E-02	-1.56229E-01	1.00879E+00	-2.06447E+00
-1.23095E-01	-1.04735E-01	1.00875E+00	-2.05627E+00
-1.49574E-01	-3.24313E-02	1.00860E+00	-2.04817E+00
-1.37167E-01	3.91692E-02	1.00840E+00	-2.04006E+00
-9.40047E-02	9.11706E-02	1.00817E+00	-2.03193E+00
-3.59825E-02	1.12908E-01	1.00801E+00	-2.02379E+00
1.93695E-02	1.04043E-01	1.00788E+00	-2.01570E+00
5.85333E-02	7.28381E-02	1.00784E+00	-2.00764E+00
7.53260E-02	3.19181E-02	1.00786E+00	-1.99970E+00
7.10413E-02	-6.56757E-03	1.00791E+00	-1.99192E+00
5.20332E-02	-3.44332E-02	1.00781E+00	-1.98432E+00
2.62423E-02	-4.85989E-02	1.00766E+00	-1.97666E+00
3.15911E-04	-5.00396E-02	1.00741E+00	-1.96908E+00
-2.16488E-02	-4.16254E-02	1.00717E+00	-1.96140E+00
-3.76411E-02	-2.62154E-02	1.00687E+00	-1.95369E+00
-4.64284E-02	-5.96243E-03	1.00678E+00	-1.94590E+00
-4.65210E-02	1.70866E-02	1.00679E+00	-1.93817E+00
-3.62655E-02	3.98185E-02	1.00705E+00	-1.93067E+00
-1.51203E-02	5.74090E-02	1.00715E+00	-1.92356E+00
1.46581E-02	6.40248E-02	1.00688E+00	-1.91655E+00
4.70978E-02	5.49139E-02	1.00647E+00	-1.90911E+00
7.33290E-02	2.90210E-02	1.00639E+00	-1.90166E+00
8.42178E-02	-9.21817E-03	1.00632E+00	-1.89440E+00
7.40090E-02	-5.01468E-02	1.00630E+00	-1.88715E+00
4.33461E-02	-8.15885E-02	1.00630E+00	-1.88001E+00
1.09409E-04	-9.32138E-02	1.00627E+00	-1.87312E+00
-4.27224E-02	-8.08524E-02	1.00597E+00	-1.86611E+00
-7.16911E-02	-4.87873E-02	1.00574E+00	-1.85900E+00
-7.82563E-02	-8.69396E-03	1.00561E+00	-1.85180E+00
-6.26196E-02	2.46833E-02	1.00573E+00	-1.84466E+00
-3.41535E-02	3.96493E-02	1.00602E+00	-1.83786E+00
-7.79666E-03	3.29031E-02	1.00599E+00	-1.83143E+00
2.40500E-03	1.16513E-02	1.00561E+00	-1.82483E+00
-9.94994E-03	-8.83160E-03	1.00524E+00	-1.81801E+00
-3.95670E-02	-1.16434E-02	1.00497E+00	-1.81106E+00
-7.02591E-02	1.37049E-02	1.00492E+00	-1.80409E+00
-8.08505E-02	6.50094E-02	1.00503E+00	-1.79727E+00
-5.42724E-02	1.25877E-01	1.00518E+00	-1.79067E+00
1.37102E-02	1.70306E-01	1.00525E+00	-1.78423E+00
1.09937E-01	1.72191E-01	1.00519E+00	-1.77790E+00
2.05944E-01	1.16385E-01	1.00495E+00	-1.77153E+00
2.66699E-01	6.93351E-03	1.00472E+00	-1.76503E+00
2.63236E-01	-1.31239E-01	1.00458E+00	-1.75851E+00
1.84541E-01	-2.58688E-01	1.00449E+00	-1.75204E+00
4.39689E-02	-3.33994E-01	1.00442E+00	-1.74558E+00
-1.22882E-01	-3.28508E-01	1.00445E+00	-1.73919E+00
-2.68747E-01	-2.37582E-01	1.00449E+00	-1.73295E+00
-3.50340E-01	-8.38466E-02	1.00442E+00	-1.72680E+00
-3.43496E-01	8.92504E-02	1.00431E+00	-1.72059E+00
-2.52083E-01	2.31751E-01	1.00422E+00	-1.71445E+00
-1.06991E-01	3.04410E-01	1.00408E+00	-1.70830E+00
4.46692E-02	2.92252E-01	1.00397E+00	-1.70213E+00
