jMRUI Data Textfile
 
Filename: GABA.txt
 
PointsInDataset: 2048
DatasetsInFile: 1
SamplingInterval: 5.00000E-01
ZeroOrderPhase: 0E0
BeginTime: 0E0
TransmitterFrequency: 1.27740E+08
MagneticField: 0E0
TypeOfNucleus: 0E0
NameOfPatient: 
DateOfExperiment: 
Spectrometer: Vespa-Simulation
AdditionalInfo: see 'readme' file for Vespa-Simulation output synopsis
 
  
Signal and FFT 
sig(real)	sig(imag)	fft(real)	fft(imag)
Signal 1 out of 1 in file
1.58517E+00	-5.54456E-01	3.10117E-01	-2.10615E+00
5.53675E-01	-1.45909E+00	3.11901E-01	-2.09808E+00
-6.82051E-01	-1.21950E+00	3.13717E-01	-2.09021E+00
-1.17804E+00	-2.23816E-01	3.15404E-01	-2.08257E+00
-7.56357E-01	6.18585E-01	3.16848E-01	-2.07491E+00
-8.63086E-03	7.42635E-01	3.18305E-01	-2.06713E+00
3.85625E-01	3.29316E-01	3.19836E-01	-2.05935E+00
2.76275E-01	-5.00260E-02	3.21399E-01	-2.05163E+00
2.79487E-02	-6.77651E-02	3.22990E-01	-2.04399E+00
1.68082E-02	1.11007E-01	3.24593E-01	-2.03637E+00
2.32791E-01	1.27425E-01	3.26258E-01	-2.02884E+00
3.62522E-01	-1.34711E-01	3.27950E-01	-2.02146E+00
1.75724E-01	-4.42528E-01	3.29534E-01	-2.01421E+00
-2.30046E-01	-4.84096E-01	3.31031E-01	-2.00698E+00
-5.41539E-01	-1.80081E-01	3.32461E-01	-1.99973E+00
-5.22898E-01	2.65106E-01	3.33957E-01	-1.99240E+00
-1.88946E-01	5.58254E-01	3.35570E-01	-1.98518E+00
2.48200E-01	5.31199E-01	3.37184E-01	-1.97810E+00
5.41306E-01	2.13513E-01	3.38693E-01	-1.97112E+00
5.35863E-01	-2.17328E-01	3.40173E-01	-1.96413E+00
2.30652E-01	-5.26502E-01	3.41682E-01	-1.95715E+00
-2.09944E-01	-5.28676E-01	3.43186E-01	-1.95030E+00
-5.17151E-01	-2.06211E-01	3.44596E-01	-1.94346E+00
-4.79965E-01	2.36956E-01	3.46004E-01	-1.93656E+00
-1.23211E-01	4.86940E-01	3.47551E-01	-1.92967E+00
2.75205E-01	3.65190E-01	3.49144E-01	-1.92295E+00
4.01537E-01	-1.62203E-03	3.50679E-01	-1.91638E+00
1.88137E-01	-2.81309E-01	3.52098E-01	-1.90984E+00
-1.21968E-01	-2.45297E-01	3.53488E-01	-1.90327E+00
-2.18040E-01	1.26354E-02	3.54907E-01	-1.89674E+00
-3.75868E-02	1.83876E-01	3.56272E-01	-1.89027E+00
1.77618E-01	7.81880E-02	3.57590E-01	-1.88372E+00
1.53314E-01	-1.70331E-01	3.59061E-01	-1.87714E+00
-1.07101E-01	-2.52883E-01	3.60647E-01	-1.87073E+00
-3.16139E-01	-3.46447E-02	3.62157E-01	-1.86450E+00
-2.15475E-01	2.79765E-01	3.63538E-01	-1.85829E+00
1.29361E-01	3.54272E-01	3.64934E-01	-1.85209E+00
3.80053E-01	8.48614E-02	3.66275E-01	-1.84592E+00
2.76721E-01	-2.75696E-01	3.67579E-01	-1.83977E+00
-8.48512E-02	-3.72950E-01	3.68888E-01	-1.83353E+00
-3.48241E-01	-1.17076E-01	3.70326E-01	-1.82732E+00
-2.63285E-01	2.27714E-01	3.71858E-01	-1.82122E+00
6.35323E-02	3.21068E-01	3.73372E-01	-1.81535E+00
2.92770E-01	9.31095E-02	3.74708E-01	-1.80953E+00
2.07604E-01	-2.01436E-01	3.75973E-01	-1.80373E+00
-7.64868E-02	-2.62881E-01	3.77168E-01	-1.79787E+00
-2.54774E-01	-5.26693E-02	3.78300E-01	-1.79198E+00
-1.58108E-01	1.90118E-01	3.79498E-01	-1.78590E+00
8.77392E-02	2.16905E-01	3.80912E-01	-1.77982E+00
2.18317E-01	2.36712E-02	3.82580E-01	-1.77393E+00
1.14356E-01	-1.69111E-01	3.84095E-01	-1.76848E+00
-9.06736E-02	-1.65181E-01	3.85278E-01	-1.76279E+00
-1.73742E-01	7.99021E-03	3.86791E-01	-1.75705E+00
-6.18842E-02	1.50201E-01	3.88363E-01	-1.75167E+00
1.06638E-01	1.13265E-01	3.89643E-01	-1.74650E+00
1.45691E-01	-4.93672E-02	3.90570E-01	-1.74125E+00
1.92338E-02	-1.55226E-01	3.91413E-01	-1.73564E+00
-1.32765E-01	-9.19363E-02	3.92513E-01	-1.72983E+00
-1.50485E-01	7.23689E-02	3.93887E-01	-1.72417E+00
-1.70308E-02	1.70309E-01	3.95087E-01	-1.71871E+00
1.35133E-01	1.07791E-01	3.96305E-01	-1.71300E+00
1.63663E-01	-5.12319E-02	3.97880E-01	-1.70731E+00
5.04217E-02	-1.59167E-01	3.99654E-01	-1.70203E+00
-9.54597E-02	-1.27810E-01	4.01159E-01	-1.69712E+00
-1.49686E-01	1.45611E-03	4.02336E-01	-1.69221E+00
-8.12114E-02	1.11729E-01	4.03408E-01	-1.68708E+00
3.71524E-02	1.19906E-01	4.04627E-01	-1.68197E+00
1.06071E-01	3.77267E-02	4.05707E-01	-1.67700E+00
8.29605E-02	-5.55873E-02	4.06584E-01	-1.67186E+00
3.53463E-03	-8.77606E-02	4.07595E-01	-1.66647E+00
-6.08274E-02	-4.68990E-02	4.08910E-01	-1.66108E+00
-6.36192E-02	2.09755E-02	4.10336E-01	-1.65602E+00
-1.43330E-02	5.67068E-02	4.11504E-01	-1.65098E+00
3.67667E-02	3.59634E-02	4.12922E-01	-1.64585E+00
4.37135E-02	-1.44410E-02	4.14289E-01	-1.64115E+00
4.38820E-03	-4.25576E-02	4.15257E-01	-1.63631E+00
-3.76965E-02	-1.95296E-02	4.16450E-01	-1.63129E+00
-3.41954E-02	3.06422E-02	4.17612E-01	-1.62644E+00
1.78046E-02	5.06002E-02	4.18807E-01	-1.62149E+00
6.51619E-02	7.10363E-03	4.20043E-01	-1.61670E+00
4.66015E-02	-6.65280E-02	4.21224E-01	-1.61189E+00
-4.00443E-02	-9.17927E-02	4.22427E-01	-1.60712E+00
-1.19899E-01	-2.08921E-02	4.23636E-01	-1.60245E+00
-1.02474E-01	1.02866E-01	4.24726E-01	-1.59780E+00
2.62984E-02	1.67758E-01	4.25782E-01	-1.59310E+00
1.71471E-01	9.20430E-02	4.26879E-01	-1.58836E+00
1.99875E-01	-8.85544E-02	4.28037E-01	-1.58364E+00
6.05914E-02	-2.33014E-01	4.29214E-01	-1.57901E+00
-1.54605E-01	-2.09040E-01	4.30350E-01	-1.57444E+00
-2.74954E-01	-1.34859E-02	4.31398E-01	-1.56981E+00
-1.92413E-01	2.11070E-01	4.32640E-01	-1.56517E+00
4.01872E-02	2.87236E-01	4.33819E-01	-1.56075E+00
2.44710E-01	1.51261E-01	4.34804E-01	-1.55626E+00
2.63042E-01	-8.93383E-02	4.35934E-01	-1.55161E+00
9.03237E-02	-2.43556E-01	4.37199E-01	-1.54717E+00
-1.21430E-01	-1.99128E-01	4.38314E-01	-1.54283E+00
-1.97517E-01	-1.82143E-02	4.39379E-01	-1.53842E+00
-9.72075E-02	1.22613E-01	4.40536E-01	-1.53400E+00
5.13473E-02	1.00233E-01	4.41685E-01	-1.52976E+00
7.90146E-02	-3.32753E-02	4.42651E-01	-1.52553E+00
-4.70015E-02	-9.94174E-02	4.43581E-01	-1.52118E+00
-1.72808E-01	1.90276E-02	4.44552E-01	-1.51670E+00
-1.05032E-01	2.30470E-01	4.45765E-01	-1.51226E+00
1.70308E-01	2.92740E-01	4.46985E-01	-1.50808E+00
4.21685E-01	5.25967E-02	4.47976E-01	-1.50394E+00
3.61690E-01	-3.56650E-01	4.48970E-01	-1.49959E+00
-5.87058E-02	-5.80790E-01	4.50210E-01	-1.49531E+00
-5.41690E-01	-3.56585E-01	4.51388E-01	-1.49131E+00
-6.66910E-01	2.08311E-01	4.52317E-01	-1.48730E+00
-2.74333E-01	6.77625E-01	4.53187E-01	-1.48310E+00
3.55047E-01	6.52682E-01	4.54283E-01	-1.47880E+00
7.19602E-01	1.37908E-01	4.55501E-01	-1.47475E+00
5.36942E-01	-4.47873E-01	4.56467E-01	-1.47086E+00
-7.46762E-03	-6.42627E-01	4.57295E-01	-1.46668E+00
-4.43461E-01	-3.49018E-01	4.58495E-01	-1.46242E+00
-4.53733E-01	1.09056E-01	4.59751E-01	-1.45856E+00
-1.40610E-01	3.24261E-01	4.60640E-01	-1.45485E+00
1.26773E-01	1.92591E-01	4.61311E-01	-1.45067E+00
1.08117E-01	-3.27734E-02	4.62669E-01	-1.44640E+00
-8.14866E-02	-5.06283E-02	4.63831E-01	-1.44290E+00
-1.33689E-01	1.56077E-01	4.64365E-01	-1.43893E+00
9.36776E-02	3.11780E-01	4.65571E-01	-1.43465E+00
4.06502E-01	1.57896E-01	4.66788E-01	-1.43096E+00
4.66144E-01	-2.54841E-01	4.67740E-01	-1.42717E+00
1.34673E-01	-5.93065E-01	4.68655E-01	-1.42347E+00
-3.78470E-01	-5.48003E-01	4.69394E-01	-1.41944E+00
-6.97221E-01	-1.10751E-01	4.70695E-01	-1.41540E+00
-5.89990E-01	4.32125E-01	4.71842E-01	-1.41201E+00
-1.24786E-01	7.36532E-01	4.72308E-01	-1.40822E+00
4.20009E-01	6.32252E-01	4.73522E-01	-1.40401E+00
7.50514E-01	1.84669E-01	4.74738E-01	-1.40053E+00
6.95335E-01	-3.79147E-01	4.75581E-01	-1.39696E+00
2.60153E-01	-7.73631E-01	4.76320E-01	-1.39317E+00
-3.56527E-01	-7.62443E-01	4.77415E-01	-1.38929E+00
-8.08879E-01	-2.97228E-01	4.78482E-01	-1.38567E+00
-7.81774E-01	3.78250E-01	4.79396E-01	-1.38213E+00
-2.48503E-01	8.17090E-01	4.80229E-01	-1.37838E+00
4.26256E-01	6.91120E-01	4.81285E-01	-1.37460E+00
7.30378E-01	1.05836E-01	4.82431E-01	-1.37108E+00
4.54468E-01	-4.37373E-01	4.83339E-01	-1.36766E+00
-8.30111E-02	-4.86567E-01	4.84130E-01	-1.36410E+00
-3.28449E-01	-9.29547E-02	4.85091E-01	-1.36045E+00
-6.93649E-02	2.24922E-01	4.86047E-01	-1.35695E+00
3.08058E-01	3.95041E-02	4.86898E-01	-1.35349E+00
2.19340E-01	-4.65984E-01	4.87659E-01	-1.34986E+00
-4.25427E-01	-6.23527E-01	4.88654E-01	-1.34615E+00
-9.97974E-01	-7.73783E-03	4.89731E-01	-1.34264E+00
-7.37858E-01	9.81227E-01	4.90707E-01	-1.33923E+00
3.88066E-01	1.37732E+00	4.91620E-01	-1.33574E+00
1.48051E+00	5.98195E-01	4.92684E-01	-1.33230E+00
1.48534E+00	-8.59680E-01	4.93652E-01	-1.32905E+00
2.46557E-01	-1.76511E+00	4.94435E-01	-1.32579E+00
-1.24528E+00	-1.28673E+00	4.95177E-01	-1.32235E+00
-1.72967E+00	1.87638E-01	4.96043E-01	-1.31886E+00
-8.51130E-01	1.39156E+00	4.96962E-01	-1.31546E+00
5.33867E-01	1.36890E+00	4.97819E-01	-1.31210E+00
1.21741E+00	3.31441E-01	4.98644E-01	-1.30867E+00
7.85717E-01	-6.49427E-01	4.99599E-01	-1.30519E+00
-9.56120E-02	-7.51774E-01	5.00644E-01	-1.30186E+00
-4.79647E-01	-1.53676E-01	5.01585E-01	-1.29863E+00
-1.25726E-01	3.00967E-01	5.02459E-01	-1.29537E+00
3.51905E-01	8.20931E-02	5.03380E-01	-1.29208E+00
2.55300E-01	-4.79547E-01	5.04317E-01	-1.28887E+00
-3.97969E-01	-6.23482E-01	5.05193E-01	-1.28574E+00
-9.06416E-01	-3.71113E-02	5.05938E-01	-1.28255E+00
-6.60864E-01	7.90568E-01	5.06761E-01	-1.27925E+00
2.07092E-01	1.08358E+00	5.07652E-01	-1.27604E+00
9.74680E-01	5.61882E-01	5.08473E-01	-1.27284E+00
1.04884E+00	-3.33501E-01	5.09310E-01	-1.26963E+00
4.68212E-01	-9.28642E-01	5.10143E-01	-1.26641E+00
-2.68704E-01	-9.21404E-01	5.11041E-01	-1.26320E+00
-7.33265E-01	-4.92441E-01	5.11926E-01	-1.26007E+00
-8.36760E-01	4.35221E-02	5.12742E-01	-1.25692E+00
-6.60148E-01	5.26661E-01	5.13592E-01	-1.25373E+00
-2.24314E-01	8.75085E-01	5.14525E-01	-1.25057E+00
4.31804E-01	8.95655E-01	5.15427E-01	-1.24753E+00
1.01799E+00	3.90312E-01	5.16270E-01	-1.24446E+00
1.05922E+00	-4.91485E-01	5.17123E-01	-1.24139E+00
3.58309E-01	-1.15507E+00	5.18032E-01	-1.23833E+00
-6.43010E-01	-1.01803E+00	5.18909E-01	-1.23541E+00
-1.13831E+00	-1.33412E-01	5.19644E-01	-1.23248E+00
-7.17784E-01	7.45617E-01	5.20341E-01	-1.22946E+00
1.73050E-01	8.59084E-01	5.21082E-01	-1.22635E+00
6.49228E-01	2.19330E-01	5.21884E-01	-1.22330E+00
3.10924E-01	-3.91117E-01	5.22661E-01	-1.22020E+00
-3.17910E-01	-2.71824E-01	5.23518E-01	-1.21709E+00
-3.70364E-01	3.92853E-01	5.24492E-01	-1.21402E+00
3.50449E-01	7.00658E-01	5.25471E-01	-1.21115E+00
1.05678E+00	5.37441E-02	5.26327E-01	-1.20831E+00
7.85316E-01	-1.06592E+00	5.27129E-01	-1.20549E+00
-4.88847E-01	-1.48061E+00	5.27866E-01	-1.20263E+00
