jMRUI Data Textfile
 
Filename: Glu.txt
 
PointsInDataset: 2048
DatasetsInFile: 1
SamplingInterval: 5.00000E-01
ZeroOrderPhase: 0E0
BeginTime: 0E0
TransmitterFrequency: 1.27740E+08
MagneticField: 0E0
TypeOfNucleus: 0E0
NameOfPatient: 
DateOfExperiment: 
Spectrometer: Vespa-Simulation
AdditionalInfo: see 'readme' file for Vespa-Simulation output synopsis
 
  
Signal and FFT 
sig(real)	sig(imag)	fft(real)	fft(imag)
Signal 1 out of 1 in file
2.70711E+00	-2.47222E-01	1.20804E+00	-3.61586E+00
1.48050E+00	-2.10695E+00	1.20774E+00	-3.59616E+00
-6.41103E-01	-2.19249E+00	1.20746E+00	-3.57674E+00
-1.81192E+00	-6.10554E-01	1.20717E+00	-3.55755E+00
-1.14922E+00	1.06819E+00	1.20688E+00	-3.53858E+00
5.16335E-01	1.30562E+00	1.20664E+00	-3.51978E+00
1.49282E+00	-5.20139E-03	1.20645E+00	-3.50125E+00
8.23951E-01	-1.52231E+00	1.20624E+00	-3.48295E+00
-8.74224E-01	-1.76257E+00	1.20599E+00	-3.46484E+00
-2.05822E+00	-4.61313E-01	1.20581E+00	-3.44684E+00
-1.70118E+00	1.25819E+00	1.20571E+00	-3.42910E+00
-1.70591E-01	1.97445E+00	1.20562E+00	-3.41164E+00
1.20646E+00	1.23580E+00	1.20544E+00	-3.39435E+00
1.38592E+00	-1.44645E-01	1.20528E+00	-3.37721E+00
4.72052E-01	-9.34869E-01	1.20514E+00	-3.36020E+00
-5.21213E-01	-5.98822E-01	1.20506E+00	-3.34339E+00
-6.73515E-01	3.35865E-01	1.20501E+00	-3.32674E+00
5.35491E-02	8.87297E-01	1.20496E+00	-3.31032E+00
9.06111E-01	5.40221E-01	1.20491E+00	-3.29404E+00
1.10269E+00	-3.71227E-01	1.20490E+00	-3.27795E+00
5.06677E-01	-1.07040E+00	1.20489E+00	-3.26199E+00
-3.59064E-01	-1.05572E+00	1.20493E+00	-3.24629E+00
-8.53108E-01	-4.60553E-01	1.20485E+00	-3.23074E+00
-7.47895E-01	1.81495E-01	1.20479E+00	-3.21522E+00
-3.08884E-01	4.44795E-01	1.20486E+00	-3.19985E+00
4.09653E-02	3.08421E-01	1.20493E+00	-3.18470E+00
8.97718E-02	5.09132E-02	1.20500E+00	-3.16974E+00
-7.16782E-02	-5.79332E-02	1.20502E+00	-3.15487E+00
-2.22730E-01	4.43713E-02	1.20511E+00	-3.14017E+00
-2.19212E-01	2.44117E-01	1.20516E+00	-3.12562E+00
-5.79996E-02	3.95357E-01	1.20519E+00	-3.11122E+00
1.81883E-01	4.12910E-01	1.20522E+00	-3.09685E+00
4.04438E-01	2.76202E-01	1.20533E+00	-3.08263E+00
5.15448E-01	1.44460E-02	1.20549E+00	-3.06857E+00
4.40668E-01	-2.82281E-01	1.20564E+00	-3.05468E+00
1.82922E-01	-4.70651E-01	1.20578E+00	-3.04096E+00
-1.32976E-01	-4.34620E-01	1.20583E+00	-3.02734E+00
-3.14622E-01	-1.96184E-01	1.20595E+00	-3.01377E+00
-2.51529E-01	6.43077E-02	1.20608E+00	-3.00038E+00
-2.98962E-02	1.39604E-01	1.20616E+00	-2.98707E+00
1.20497E-01	-1.75032E-02	1.20632E+00	-2.97382E+00
2.82626E-02	-2.32969E-01	1.20653E+00	-2.96073E+00
-2.48891E-01	-2.58080E-01	1.20677E+00	-2.94783E+00
-4.58266E-01	-3.71893E-03	1.20689E+00	-2.93507E+00
-3.77147E-01	3.59054E-01	1.20703E+00	-2.92233E+00
-2.47972E-02	5.39204E-01	1.20720E+00	-2.90972E+00
3.41653E-01	3.85298E-01	1.20734E+00	-2.89725E+00
4.50585E-01	2.38210E-02	1.20745E+00	-2.88479E+00
2.53416E-01	-2.54062E-01	1.20768E+00	-2.87241E+00
-4.23480E-02	-2.51452E-01	1.20790E+00	-2.86021E+00
-1.69860E-01	-3.05771E-02	1.20816E+00	-2.84812E+00
-4.17243E-02	1.62385E-01	1.20832E+00	-2.83614E+00
1.87360E-01	1.31702E-01	1.20859E+00	-2.82424E+00
2.79263E-01	-9.60943E-02	1.20878E+00	-2.81242E+00
1.33136E-01	-3.13016E-01	1.20903E+00	-2.80080E+00
-1.35088E-01	-3.28739E-01	1.20920E+00	-2.78917E+00
-3.12408E-01	-1.35534E-01	1.20938E+00	-2.77767E+00
-2.80740E-01	1.04021E-01	1.20962E+00	-2.76618E+00
-1.03344E-01	2.15225E-01	1.20984E+00	-2.75490E+00
5.65668E-02	1.57373E-01	1.21003E+00	-2.74363E+00
8.93147E-02	3.16511E-02	1.21018E+00	-2.73244E+00
1.83156E-02	-3.38452E-02	1.21046E+00	-2.72124E+00
-5.12349E-02	8.79094E-04	1.21075E+00	-2.71024E+00
-4.40280E-02	7.46537E-02	1.21105E+00	-2.69936E+00
2.58750E-02	1.04965E-01	1.21127E+00	-2.68855E+00
9.07505E-02	6.78027E-02	1.21155E+00	-2.67779E+00
1.05289E-01	3.09440E-03	1.21182E+00	-2.66718E+00
8.05119E-02	-4.19075E-02	1.21203E+00	-2.65666E+00
5.18325E-02	-5.97718E-02	1.21218E+00	-2.64616E+00
3.05597E-02	-7.27654E-02	1.21236E+00	-2.63563E+00
-2.00312E-03	-8.86535E-02	1.21263E+00	-2.62520E+00
-5.55957E-02	-8.25468E-02	1.21290E+00	-2.61485E+00
-1.00439E-01	-2.98505E-02	1.21323E+00	-2.60457E+00
-8.95152E-02	4.91631E-02	1.21361E+00	-2.59443E+00
-1.50813E-02	9.20416E-02	1.21395E+00	-2.58445E+00
6.54975E-02	5.29820E-02	1.21421E+00	-2.57455E+00
7.42098E-02	-4.02881E-02	1.21441E+00	-2.56467E+00
-8.37228E-03	-9.83701E-02	1.21463E+00	-2.55481E+00
-1.10445E-01	-5.17337E-02	1.21486E+00	-2.54500E+00
-1.26750E-01	7.34115E-02	1.21512E+00	-2.53521E+00
-2.06514E-02	1.65829E-01	1.21544E+00	-2.52553E+00
1.28415E-01	1.28093E-01	1.21576E+00	-2.51595E+00
1.87266E-01	-2.51945E-02	1.21604E+00	-2.50647E+00
9.16868E-02	-1.67831E-01	1.21630E+00	-2.49700E+00
-8.50383E-02	-1.70834E-01	1.21663E+00	-2.48766E+00
-1.89103E-01	-2.36634E-02	1.21678E+00	-2.47837E+00
-1.23761E-01	1.47449E-01	1.21703E+00	-2.46894E+00
5.78872E-02	1.88280E-01	1.21749E+00	-2.45970E+00
1.94664E-01	5.70915E-02	1.21771E+00	-2.45068E+00
1.60627E-01	-1.32859E-01	1.21799E+00	-2.44147E+00
-1.90561E-02	-2.11616E-01	1.21835E+00	-2.43244E+00
-1.87054E-01	-1.05198E-01	1.21880E+00	-2.42353E+00
-1.93077E-01	9.57020E-02	1.21893E+00	-2.41487E+00
-2.87477E-02	2.14381E-01	1.21904E+00	-2.40578E+00
1.63220E-01	1.44602E-01	1.21958E+00	-2.39689E+00
2.14204E-01	-5.48155E-02	1.21986E+00	-2.38838E+00
7.77751E-02	-2.11002E-01	1.21999E+00	-2.37962E+00
-1.29634E-01	-1.87864E-01	1.22032E+00	-2.37087E+00
-2.30040E-01	-4.00857E-03	1.22082E+00	-2.36228E+00
-1.37504E-01	1.84022E-01	1.22106E+00	-2.35401E+00
6.88740E-02	2.16663E-01	1.22117E+00	-2.34542E+00
2.13547E-01	6.73532E-02	1.22157E+00	-2.33692E+00
1.74246E-01	-1.35814E-01	1.22192E+00	-2.32863E+00
-1.47171E-02	-2.19381E-01	1.22209E+00	-2.32035E+00
-1.91715E-01	-1.11305E-01	1.22237E+00	-2.31193E+00
-2.04080E-01	9.77594E-02	1.22285E+00	-2.30367E+00
-3.73231E-02	2.29710E-01	1.22318E+00	-2.29566E+00
1.70477E-01	1.68382E-01	1.22340E+00	-2.28752E+00
2.42351E-01	-4.06408E-02	1.22376E+00	-2.27946E+00
1.11555E-01	-2.24194E-01	1.22403E+00	-2.27151E+00
-1.17999E-01	-2.24573E-01	1.22423E+00	-2.26352E+00
-2.53842E-01	-3.46021E-02	1.22459E+00	-2.25550E+00
-1.76004E-01	1.89831E-01	1.22488E+00	-2.24768E+00
5.64648E-02	2.56415E-01	1.22520E+00	-2.23975E+00
2.47844E-01	1.00942E-01	1.22558E+00	-2.23201E+00
2.28902E-01	-1.50222E-01	1.22590E+00	-2.22433E+00
6.50193E-03	-2.80404E-01	1.22612E+00	-2.21672E+00
-2.32526E-01	-1.68356E-01	1.22632E+00	-2.20898E+00
-2.76301E-01	9.87666E-02	1.22664E+00	-2.20128E+00
-7.50971E-02	2.90431E-01	1.22703E+00	-2.19365E+00
2.04184E-01	2.30139E-01	1.22738E+00	-2.18624E+00
3.14402E-01	-4.27607E-02	1.22756E+00	-2.17871E+00
1.45599E-01	-2.95065E-01	1.22796E+00	-2.17114E+00
-1.67452E-01	-2.98119E-01	1.22845E+00	-2.16382E+00
-3.52426E-01	-3.44050E-02	1.22866E+00	-2.15671E+00
-2.37564E-01	2.74914E-01	1.22870E+00	-2.14924E+00
8.81204E-02	3.57218E-01	1.22920E+00	-2.14177E+00
3.42845E-01	1.32224E-01	1.22968E+00	-2.13470E+00
2.98529E-01	-2.07168E-01	1.22973E+00	-2.12768E+00
-1.05382E-02	-3.58837E-01	1.22991E+00	-2.12021E+00
-3.09343E-01	-1.81611E-01	1.23054E+00	-2.11302E+00
-3.23716E-01	1.70954E-01	1.23086E+00	-2.10617E+00
-2.97479E-02	3.80488E-01	1.23105E+00	-2.09926E+00
3.16739E-01	2.47931E-01	1.23103E+00	-2.09203E+00
4.04003E-01	-1.22816E-01	1.23178E+00	-2.08481E+00
1.44070E-01	-4.11366E-01	1.23209E+00	-2.07837E+00
-2.44521E-01	-3.64237E-01	1.23187E+00	-2.07127E+00
-4.28515E-01	-2.14065E-02	1.23261E+00	-2.06397E+00
-2.55377E-01	3.18886E-01	1.23307E+00	-2.05750E+00
1.13186E-01	3.65425E-01	1.23331E+00	-2.05083E+00
3.48116E-01	9.09682E-02	1.23338E+00	-2.04408E+00
2.46208E-01	-2.48561E-01	1.23385E+00	-2.03713E+00
-9.35699E-02	-3.45367E-01	1.23418E+00	-2.03074E+00
-3.63708E-01	-1.11174E-01	1.23418E+00	-2.02401E+00
-3.21452E-01	2.50957E-01	1.23452E+00	-2.01712E+00
3.22209E-03	4.29960E-01	1.23498E+00	-2.01048E+00
3.41939E-01	2.75428E-01	1.23544E+00	-2.00391E+00
4.23055E-01	-8.23719E-02	1.23588E+00	-1.99759E+00
1.96753E-01	-3.54461E-01	1.23603E+00	-1.99126E+00
-1.37652E-01	-3.38879E-01	1.23623E+00	-1.98476E+00
-3.10122E-01	-7.79687E-02	1.23649E+00	-1.97833E+00
-2.01887E-01	1.93824E-01	1.23672E+00	-1.97191E+00
7.12065E-02	2.51562E-01	1.23696E+00	-1.96543E+00
2.67207E-01	5.76134E-02	1.23732E+00	-1.95900E+00
2.16514E-01	-2.20101E-01	1.23771E+00	-1.95268E+00
-4.93082E-02	-3.49134E-01	1.23802E+00	-1.94643E+00
-3.28793E-01	-2.13690E-01	1.23833E+00	-1.94012E+00
-4.06928E-01	9.99992E-02	1.23876E+00	-1.93387E+00
-2.16201E-01	3.69946E-01	1.23915E+00	-1.92778E+00
1.12883E-01	4.02920E-01	1.23947E+00	-1.92172E+00
3.46349E-01	1.78317E-01	1.23978E+00	-1.91574E+00
3.19801E-01	-1.32541E-01	1.23991E+00	-1.90976E+00
6.64815E-02	-2.90996E-01	1.24002E+00	-1.90364E+00
-1.99840E-01	-1.75248E-01	1.24021E+00	-1.89744E+00
-2.46686E-01	1.14219E-01	1.24054E+00	-1.89124E+00
-1.46178E-02	3.21069E-01	1.24099E+00	-1.88515E+00
3.16118E-01	2.36630E-01	1.24145E+00	-1.87923E+00
4.55902E-01	-1.14978E-01	1.24181E+00	-1.87343E+00
2.45026E-01	-4.71604E-01	1.24207E+00	-1.86760E+00
-1.93042E-01	-5.34414E-01	1.24229E+00	-1.86176E+00
-5.29514E-01	-2.22792E-01	1.24256E+00	-1.85587E+00
-4.95501E-01	2.36751E-01	1.24283E+00	-1.85003E+00
-1.17971E-01	4.83084E-01	1.24314E+00	-1.84419E+00
2.85999E-01	3.24512E-01	1.24346E+00	-1.83839E+00
3.71160E-01	-8.60799E-02	1.24383E+00	-1.83265E+00
6.64762E-02	-3.70455E-01	1.24413E+00	-1.82700E+00
-3.49276E-01	-2.51237E-01	1.24439E+00	-1.82135E+00
-4.80018E-01	1.94681E-01	1.24462E+00	-1.81566E+00
-1.61301E-01	5.86042E-01	1.24492E+00	-1.80998E+00
3.80150E-01	5.60539E-01	1.24523E+00	-1.80435E+00
7.06380E-01	9.56818E-02	1.24550E+00	-1.79877E+00
5.40957E-01	-4.57014E-01	1.24578E+00	-1.79315E+00
1.19507E-02	-6.63725E-01	1.24610E+00	-1.78757E+00
-4.50805E-01	-3.77630E-01	1.24644E+00	-1.78207E+00
-4.80952E-01	1.34361E-01	1.24671E+00	-1.77662E+00
-8.89175E-02	4.21262E-01	1.24694E+00	-1.77110E+00
3.48869E-01	2.37493E-01	1.24728E+00	-1.76557E+00
4.17178E-01	-2.44048E-01	1.24761E+00	-1.76017E+00
2.41372E-02	-5.80016E-01	1.24792E+00	-1.75477E+00
-5.13865E-01	-4.39332E-01	1.24821E+00	-1.74940E+00
-7.37867E-01	1.07702E-01	1.24852E+00	-1.74404E+00
