jMRUI Data Textfile
 
Filename: GPC.txt
 
PointsInDataset: 2048
DatasetsInFile: 1
SamplingInterval: 5.00000E-01
ZeroOrderPhase: 0E0
BeginTime: 0E0
TransmitterFrequency: 1.27740E+08
MagneticField: 0E0
TypeOfNucleus: 0E0
NameOfPatient: 
DateOfExperiment: 
Spectrometer: Vespa-Simulation
AdditionalInfo: see 'readme' file for Vespa-Simulation output synopsis
 
  
Signal and FFT 
sig(real)	sig(imag)	fft(real)	fft(imag)
Signal 1 out of 1 in file
9.00000E+00	-5.44360E-17	4.62177E+00	-1.46214E+01
7.40751E+00	-5.03676E+00	4.62030E+00	-1.45420E+01
3.27802E+00	-8.29108E+00	4.61871E+00	-1.44628E+01
-1.94202E+00	-8.65854E+00	4.61825E+00	-1.43847E+01
-6.44407E+00	-6.03963E+00	4.61733E+00	-1.43079E+01
-8.68386E+00	-1.36461E+00	4.61618E+00	-1.42318E+01
-7.91099E+00	3.73669E+00	4.61493E+00	-1.41563E+01
-4.41999E+00	7.50282E+00	4.61374E+00	-1.40815E+01
5.60984E-01	8.64885E+00	4.61245E+00	-1.40073E+01
5.30195E+00	6.80456E+00	4.61135E+00	-1.39335E+01
8.17191E+00	2.63335E+00	4.61056E+00	-1.38606E+01
8.19967E+00	-2.40594E+00	4.60989E+00	-1.37886E+01
5.40233E+00	-6.56909E+00	4.60892E+00	-1.37176E+01
7.70089E-01	-8.43010E+00	4.60777E+00	-1.36469E+01
-4.08400E+00	-7.36942E+00	4.60684E+00	-1.35768E+01
-7.48558E+00	-3.77990E+00	4.60595E+00	-1.35076E+01
-8.27643E+00	1.07819E+00	4.60464E+00	-1.34392E+01
-6.20857E+00	5.51924E+00	4.60317E+00	-1.33706E+01
-2.02127E+00	8.01720E+00	4.60267E+00	-1.33027E+01
2.82314E+00	7.72979E+00	4.60189E+00	-1.32360E+01
6.64951E+00	4.78211E+00	4.60088E+00	-1.31694E+01
8.14918E+00	2.14610E-01	4.60042E+00	-1.31038E+01
6.82734E+00	-4.38398E+00	4.59942E+00	-1.30390E+01
3.16583E+00	-7.42912E+00	4.59830E+00	-1.29745E+01
-1.55198E+00	-7.88631E+00	4.59725E+00	-1.29103E+01
-5.69087E+00	-5.62233E+00	4.59651E+00	-1.28466E+01
-7.83039E+00	-1.44265E+00	4.59590E+00	-1.27835E+01
-7.25222E+00	3.19482E+00	4.59541E+00	-1.27212E+01
-4.18103E+00	6.68816E+00	4.59476E+00	-1.26597E+01
3.01687E-01	7.84461E+00	4.59394E+00	-1.25986E+01
4.63847E+00	6.28772E+00	4.59317E+00	-1.25379E+01
7.33658E+00	2.57927E+00	4.59265E+00	-1.24779E+01
7.48187E+00	-1.98302E+00	4.59174E+00	-1.24189E+01
5.04826E+00	-5.81926E+00	4.59013E+00	-1.23599E+01
8.98256E-01	-7.61480E+00	4.58890E+00	-1.23004E+01
-3.52219E+00	-6.77014E+00	4.58840E+00	-1.22419E+01
-6.68778E+00	-3.60109E+00	4.58787E+00	-1.21836E+01
-7.51973E+00	7.78909E-01	4.58813E+00	-1.21266E+01
-5.75329E+00	4.84939E+00	4.58746E+00	-1.20710E+01
-2.02131E+00	7.21111E+00	4.58567E+00	-1.20151E+01
2.37193E+00	7.06637E+00	4.58409E+00	-1.19586E+01
5.90689E+00	4.48855E+00	4.58351E+00	-1.19022E+01
7.37368E+00	3.88644E-01	4.58337E+00	-1.18469E+01
6.28643E+00	-3.80678E+00	4.58314E+00	-1.17923E+01
3.04370E+00	-6.65132E+00	4.58293E+00	-1.17383E+01
-1.21726E+00	-7.17778E+00	4.58279E+00	-1.16851E+01
-5.01881E+00	-5.22652E+00	4.58215E+00	-1.16327E+01
-7.05573E+00	-1.49304E+00	4.58076E+00	-1.15805E+01
-6.64281E+00	2.71987E+00	4.57926E+00	-1.15278E+01
-3.94530E+00	5.95616E+00	4.57855E+00	-1.14750E+01
8.61570E-02	7.11021E+00	4.57822E+00	-1.14233E+01
4.05003E+00	5.80391E+00	4.57789E+00	-1.13720E+01
6.58153E+00	2.51034E+00	4.57749E+00	-1.13212E+01
6.82187E+00	-1.61710E+00	4.57707E+00	-1.12714E+01
4.70975E+00	-5.14879E+00	4.57602E+00	-1.12215E+01
9.94967E-01	-6.87351E+00	4.57513E+00	-1.11719E+01
-3.02782E+00	-6.21409E+00	4.57411E+00	-1.11223E+01
-5.96970E+00	-3.42009E+00	4.57343E+00	-1.10730E+01
-6.82743E+00	5.25914E-01	4.57303E+00	-1.10237E+01
-5.32500E+00	4.25380E+00	4.57321E+00	-1.09752E+01
-2.00222E+00	6.48119E+00	4.57344E+00	-1.09275E+01
1.97924E+00	6.45490E+00	4.57356E+00	-1.08807E+01
5.24142E+00	4.20512E+00	4.57304E+00	-1.08345E+01
6.66735E+00	5.27687E-01	4.57213E+00	-1.07885E+01
5.78289E+00	-3.29704E+00	4.57077E+00	-1.07423E+01
2.91461E+00	-5.94993E+00	4.56961E+00	-1.06960E+01
-9.30982E-01	-6.52826E+00	4.56876E+00	-1.06494E+01
-4.41976E+00	-4.85208E+00	4.56898E+00	-1.06036E+01
-6.35315E+00	-1.52001E+00	4.56888E+00	-1.05589E+01
-6.07971E+00	2.30430E+00	4.56827E+00	-1.05145E+01
-3.71432E+00	5.29904E+00	4.56767E+00	-1.04704E+01
-9.14902E-02	6.44010E+00	4.56654E+00	-1.04267E+01
3.52873E+00	5.35184E+00	4.56502E+00	-1.03826E+01
5.89947E+00	2.43000E+00	4.56389E+00	-1.03380E+01
6.21551E+00	-1.30160E+00	4.56368E+00	-1.02932E+01
4.38726E+00	-4.54977E+00	4.56454E+00	-1.02491E+01
1.06485E+00	-6.19999E+00	4.56607E+00	-1.02063E+01
-2.59337E+00	-5.69886E+00	4.56766E+00	-1.01651E+01
-5.32382E+00	-3.23909E+00	4.56825E+00	-1.01255E+01
-6.19453E+00	3.13522E-01	4.56707E+00	-1.00866E+01
-4.92307E+00	3.72466E+00	4.56397E+00	-1.00470E+01
-1.96745E+00	5.82076E+00	4.56013E+00	-1.00052E+01
1.63825E+00	5.89187E+00	4.55775E+00	-9.96115E+00
4.64562E+00	3.93260E+00	4.55970E+00	-9.91713E+00
6.02446E+00	6.36831E-01	4.56232E+00	-9.87967E+00
5.31485E+00	-2.84742E+00	4.55800E+00	-9.84081E+00
2.78085E+00	-5.31801E+00	4.55656E+00	-9.79719E+00
-6.87260E-01	-5.93331E+00	4.55885E+00	-9.75513E+00
-3.88621E+00	-4.49881E+00	4.56183E+00	-9.71615E+00
-5.71629E+00	-1.52785E+00	4.56366E+00	-9.67934E+00
-5.55987E+00	1.94160E+00	4.56363E+00	-9.64352E+00
-3.48958E+00	4.70950E+00	4.56189E+00	-9.60737E+00
-2.36450E-01	5.82910E+00	4.55921E+00	-9.57013E+00
3.06763E+00	4.92998E+00	4.55667E+00	-9.53153E+00
5.28380E+00	2.34100E+00	4.55517E+00	-9.49227E+00
5.65897E+00	-1.03030E+00	4.55482E+00	-9.45316E+00
4.08103E+00	-4.01501E+00	4.55526E+00	-9.41488E+00
1.11191E+00	-5.58850E+00	4.55595E+00	-9.37755E+00
-2.21228E+00	-5.22197E+00	4.55651E+00	-9.34116E+00
-4.74328E+00	-3.05986E+00	4.55635E+00	-9.30551E+00
-5.61641E+00	1.36132E-01	4.55545E+00	-9.26953E+00
-4.54641E+00	3.25525E+00	4.55484E+00	-9.23307E+00
-1.92029E+00	5.22357E+00	4.55478E+00	-9.19715E+00
1.34285E+00	5.37396E+00	4.55446E+00	-9.16142E+00
4.11275E+00	3.67153E+00	4.55451E+00	-9.12603E+00
5.43975E+00	7.20323E-01	4.55441E+00	-9.09108E+00
4.88032E+00	-2.45147E+00	4.55428E+00	-9.05662E+00
2.64480E+00	-4.74894E+00	4.55365E+00	-9.02235E+00
-4.80919E-01	-5.38879E+00	4.55292E+00	-8.98813E+00
-3.41152E+00	-4.16620E+00	4.55193E+00	-8.95377E+00
-5.13946E+00	-1.51976E+00	4.55124E+00	-8.91931E+00
-5.08057E+00	1.62544E+00	4.55066E+00	-8.88488E+00
-3.27191E+00	4.18115E+00	4.55060E+00	-8.85068E+00
-3.53132E-01	5.27241E+00	4.55057E+00	-8.81696E+00
2.66004E+00	4.53709E+00	4.55069E+00	-8.78376E+00
4.72852E+00	2.24559E+00	4.55029E+00	-8.75079E+00
5.14858E+00	-7.97921E-01	4.55017E+00	-8.71788E+00
3.79099E+00	-3.53811E+00	4.54973E+00	-8.68525E+00
1.14009E+00	-5.03367E+00	4.54943E+00	-8.65249E+00
-1.87872E+00	-4.78102E+00	4.54960E+00	-8.62006E+00
-4.22189E+00	-2.88373E+00	4.54953E+00	-8.58843E+00
-5.08870E+00	-1.06992E-02	4.54887E+00	-8.55675E+00
-4.19426E+00	2.83907E+00	4.54840E+00	-8.52476E+00
-1.86322E+00	4.68400E+00	4.54832E+00	-8.49309E+00
1.08772E+00	4.89796E+00	4.54817E+00	-8.46196E+00
3.63638E+00	3.42253E+00	4.54755E+00	-8.43094E+00
4.90834E+00	7.81838E-01	4.54713E+00	-8.39958E+00
4.47737E+00	-2.10344E+00	4.54718E+00	-8.36869E+00
2.50793E+00	-4.23699E+00	4.54694E+00	-8.33855E+00
-3.06786E-01	-4.89083E+00	4.54571E+00	-8.30831E+00
-2.98964E+00	-3.85372E+00	4.54473E+00	-8.27675E+00
-4.61735E+00	-1.49867E+00	4.54551E+00	-8.24534E+00
-4.63905E+00	1.35060E+00	4.54677E+00	-8.21597E+00
-3.06232E+00	3.70784E+00	4.54633E+00	-8.18713E+00
-4.45373E-01	4.76557E+00	4.54616E+00	-8.15816E+00
2.30047E+00	4.17156E+00	4.54451E+00	-8.12936E+00
4.22801E+00	2.14597E+00	4.54325E+00	-8.09866E+00
4.68089E+00	-5.99686E-01	4.54388E+00	-8.06832E+00
3.51700E+00	-3.11321E+00	4.54481E+00	-8.03958E+00
1.15238E+00	-4.53062E+00	4.54471E+00	-8.01172E+00
-1.58708E+00	-4.37386E+00	4.54390E+00	-7.98334E+00
-3.75406E+00	-2.71171E+00	4.54337E+00	-7.95474E+00
-4.60739E+00	-1.30935E-01	4.54292E+00	-7.92627E+00
-3.86540E+00	2.47074E+00	4.54241E+00	-7.89796E+00
-1.79892E+00	4.19671E+00	4.54192E+00	-7.86940E+00
8.68070E-01	4.46087E+00	4.54196E+00	-7.84103E+00
3.21098E+00	3.18572E+00	4.54208E+00	-7.81308E+00
4.42568E+00	8.25000E-01	4.54224E+00	-7.78554E+00
4.10427E+00	-1.79780E+00	4.54215E+00	-7.75834E+00
2.37190E+00	-3.77662E+00	4.54179E+00	-7.73114E+00
-1.61375E-01	-4.43579E+00	4.54156E+00	-7.70383E+00
-2.61509E+00	-3.56072E+00	4.54147E+00	-7.67715E+00
-4.14510E+00	-1.46713E+00	4.54053E+00	-7.65006E+00
-4.23271E+00	1.11227E+00	4.54062E+00	-7.62260E+00
-2.86127E+00	3.28428E+00	4.54092E+00	-7.59589E+00
-5.16937E-01	4.30443E+00	4.54118E+00	-7.56988E+00
1.98349E+00	3.83207E+00	4.54054E+00	-7.54385E+00
3.77712E+00	2.04394E+00	4.54038E+00	-7.51748E+00
4.25266E+00	-4.31583E-01	4.54009E+00	-7.49143E+00
3.25878E+00	-2.73502E+00	4.54006E+00	-7.46560E+00
1.15150E+00	-4.07483E+00	4.53935E+00	-7.43979E+00
-1.33272E+00	-3.99823E+00	4.53945E+00	-7.41364E+00
-3.33449E+00	-2.54490E+00	4.53937E+00	-7.38809E+00
-4.16871E+00	-2.28452E-01	4.53981E+00	-7.36286E+00
-3.55892E+00	2.14497E+00	4.53902E+00	-7.33790E+00
-1.72875E+00	3.75716E+00	4.53964E+00	-7.31271E+00
6.79607E-01	4.05987E+00	4.53892E+00	-7.28799E+00
2.83144E+00	2.96114E+00	4.53854E+00	-7.26409E+00
3.98762E+00	8.52569E-01	4.53748E+00	-7.23860E+00
3.75916E+00	-1.52995E+00	4.53707E+00	-7.21380E+00
2.23775E+00	-3.36303E+00	4.53696E+00	-7.18859E+00
-4.03175E-02	-4.02030E+00	4.53694E+00	-7.16434E+00
-2.28313E+00	-3.28635E+00	4.53661E+00	-7.13985E+00
-3.71825E+00	-1.42730E+00	4.53631E+00	-7.11554E+00
-3.85910E+00	9.06162E-01	4.53621E+00	-7.09105E+00
-2.66911E+00	2.90555E+00	4.53624E+00	-7.06710E+00
-5.70737E-01	3.88518E+00	4.53607E+00	-7.04310E+00
1.70458E+00	3.51712E+00	4.53607E+00	-7.01920E+00
3.37130E+00	1.94081E+00	4.53630E+00	-6.99546E+00
3.86092E+00	-2.89349E-01	4.53654E+00	-6.97240E+00
3.01581E+00	-2.39890E+00	4.53618E+00	-6.94962E+00
1.13984E+00	-3.66215E+00	4.53525E+00	-6.92668E+00
-1.11136E+00	-3.65204E+00	4.53414E+00	-6.90265E+00
-2.95856E+00	-2.38385E+00	4.53471E+00	-6.87845E+00
-3.76917E+00	-3.06287E-01	4.53538E+00	-6.85567E+00
-3.27363E+00	1.85731E+00	4.53548E+00	-6.83319E+00
-1.65494E+00	3.36074E+00	4.53547E+00	-6.81066E+00
5.18730E-01	3.69225E+00	4.53545E+00	-6.78844E+00
2.49314E+00	2.74875E+00	4.53505E+00	-6.76636E+00
3.59031E+00	8.67084E-01	4.53444E+00	-6.74410E+00
3.44028E+00	-1.29565E+00	4.53394E+00	-6.72164E+00
