jMRUI Data Textfile
 
Filename: Lac.txt
 
PointsInDataset: 2048
DatasetsInFile: 1
SamplingInterval: 5.00000E-01
ZeroOrderPhase: 0E0
BeginTime: 0E0
TransmitterFrequency: 1.27740E+08
MagneticField: 0E0
TypeOfNucleus: 0E0
NameOfPatient: 
DateOfExperiment: 
Spectrometer: Vespa-Simulation
AdditionalInfo: see 'readme' file for Vespa-Simulation output synopsis
 
  
Signal and FFT 
sig(real)	sig(imag)	fft(real)	fft(imag)
Signal 1 out of 1 in file
2.14859E+00	5.40018E-02	1.31293E+00	-2.14019E+00
6.73945E-01	-1.87736E+00	1.30742E+00	-2.12517E+00
-1.45926E+00	-9.14528E-01	1.30199E+00	-2.10812E+00
-9.65012E-01	1.27713E+00	1.29921E+00	-2.09288E+00
1.23820E+00	1.20344E+00	1.29440E+00	-2.07971E+00
1.60992E+00	-9.73260E-01	1.28853E+00	-2.06390E+00
-4.23396E-01	-1.82159E+00	1.28579E+00	-2.04867E+00
-1.68800E+00	-8.14667E-02	1.28209E+00	-2.03541E+00
-3.18526E-01	1.46656E+00	1.27769E+00	-2.02175E+00
1.40865E+00	4.62007E-01	1.27358E+00	-2.00746E+00
7.65919E-01	-1.40226E+00	1.27068E+00	-1.99362E+00
-1.18624E+00	-1.16684E+00	1.26745E+00	-1.98088E+00
-1.39539E+00	7.62035E-01	1.26385E+00	-1.96812E+00
3.80175E-01	1.37908E+00	1.26024E+00	-1.95503E+00
1.31741E+00	-1.67618E-01	1.25752E+00	-1.94210E+00
2.12254E-02	-1.35714E+00	1.25471E+00	-1.93009E+00
-1.38734E+00	-3.39647E-01	1.25155E+00	-1.91810E+00
-7.06094E-01	1.23840E+00	1.24842E+00	-1.90600E+00
9.45414E-01	9.35378E-01	1.24575E+00	-1.89396E+00
1.00678E+00	-6.83500E-01	1.24313E+00	-1.88248E+00
-5.10284E-01	-1.06139E+00	1.24027E+00	-1.87112E+00
-1.16803E+00	3.15298E-01	1.23738E+00	-1.85954E+00
2.18386E-02	1.23031E+00	1.23507E+00	-1.84793E+00
1.15149E+00	2.88706E-01	1.23296E+00	-1.83693E+00
5.02059E-01	-9.80082E-01	1.23072E+00	-1.82609E+00
-8.25222E-01	-6.27963E-01	1.22855E+00	-1.81537E+00
-7.54486E-01	6.98497E-01	1.22660E+00	-1.80486E+00
5.25135E-01	8.97000E-01	1.22455E+00	-1.79481E+00
9.80724E-01	-2.82305E-01	1.22218E+00	-1.78476E+00
-3.97645E-02	-9.62952E-01	1.21992E+00	-1.77451E+00
-8.91969E-01	-1.43776E-01	1.21794E+00	-1.76436E+00
-2.92554E-01	8.23748E-01	1.21606E+00	-1.75453E+00
7.42818E-01	4.50894E-01	1.21405E+00	-1.74475E+00
6.01479E-01	-6.06309E-01	1.21222E+00	-1.73499E+00
-4.25571E-01	-6.92868E-01	1.21054E+00	-1.72540E+00
-7.19129E-01	2.53366E-01	1.20892E+00	-1.71613E+00
1.08349E-01	7.20596E-01	1.20705E+00	-1.70693E+00
7.14186E-01	3.74516E-02	1.20534E+00	-1.69765E+00
1.95788E-01	-6.71589E-01	1.20377E+00	-1.68846E+00
-5.75399E-01	-3.32705E-01	1.20231E+00	-1.67953E+00
-4.18007E-01	4.55427E-01	1.20078E+00	-1.67069E+00
3.46933E-01	4.67908E-01	1.19935E+00	-1.66197E+00
5.11940E-01	-2.42701E-01	1.19788E+00	-1.65337E+00
-1.17177E-01	-5.41534E-01	1.19646E+00	-1.64485E+00
-5.25117E-01	-1.99473E-02	1.19509E+00	-1.63645E+00
-1.29393E-01	4.63204E-01	1.19366E+00	-1.62821E+00
3.92834E-01	1.97618E-01	1.19215E+00	-1.61989E+00
2.51786E-01	-3.34404E-01	1.19094E+00	-1.61159E+00
-2.66659E-01	-3.11120E-01	1.18967E+00	-1.60359E+00
-3.53206E-01	1.69063E-01	1.18837E+00	-1.59558E+00
6.30381E-02	3.48710E-01	1.18709E+00	-1.58766E+00
3.08895E-01	1.36407E-02	1.18590E+00	-1.57974E+00
5.86105E-02	-2.70944E-01	1.18479E+00	-1.57203E+00
-2.44684E-01	-1.02239E-01	1.18355E+00	-1.56443E+00
-1.55839E-01	2.03567E-01	1.18225E+00	-1.55667E+00
1.32422E-01	1.91872E-01	1.18134E+00	-1.54894E+00
1.85669E-01	-5.70378E-02	1.18039E+00	-1.54159E+00
-1.05399E-02	-1.53447E-01	1.17935E+00	-1.53427E+00
-1.28931E-01	-1.08841E-02	1.17830E+00	-1.52699E+00
-3.61450E-02	1.15753E-01	1.17733E+00	-1.51977E+00
8.77137E-02	7.14319E-02	1.17630E+00	-1.51270E+00
8.95891E-02	-3.42707E-02	1.17528E+00	-1.50561E+00
1.88877E-02	-7.10808E-02	1.17420E+00	-1.49853E+00
-3.33357E-02	-4.40233E-02	1.17340E+00	-1.49143E+00
-4.74677E-02	5.43940E-03	1.17256E+00	-1.48472E+00
-1.19543E-02	5.44832E-02	1.17150E+00	-1.47795E+00
6.80496E-02	4.18127E-02	1.17050E+00	-1.47110E+00
9.07098E-02	-6.38752E-02	1.16964E+00	-1.46427E+00
-2.72599E-02	-1.34728E-01	1.16882E+00	-1.45764E+00
-1.51122E-01	-2.46585E-02	1.16790E+00	-1.45107E+00
-6.74021E-02	1.47057E-01	1.16692E+00	-1.44436E+00
1.43435E-01	1.02041E-01	1.16632E+00	-1.43761E+00
1.47525E-01	-1.40261E-01	1.16580E+00	-1.43136E+00
-1.16156E-01	-2.06104E-01	1.16491E+00	-1.42519E+00
-2.55048E-01	6.13119E-02	1.16394E+00	-1.41884E+00
-6.88812E-03	2.76328E-01	1.16319E+00	-1.41229E+00
2.78389E-01	6.85864E-02	1.16275E+00	-1.40613E+00
1.27618E-01	-2.77529E-01	1.16197E+00	-1.40012E+00
-2.68917E-01	-1.99249E-01	1.16115E+00	-1.39408E+00
-2.79531E-01	2.32651E-01	1.16044E+00	-1.38789E+00
1.65063E-01	3.44919E-01	1.15979E+00	-1.38194E+00
3.82990E-01	-8.57990E-02	1.15910E+00	-1.37606E+00
-9.07840E-03	-4.05802E-01	1.15817E+00	-1.37020E+00
-4.24299E-01	-7.50166E-02	1.15743E+00	-1.36401E+00
-1.78483E-01	4.24878E-01	1.15692E+00	-1.35816E+00
3.87353E-01	2.87529E-01	1.15631E+00	-1.35236E+00
3.75423E-01	-3.17202E-01	1.15559E+00	-1.34660E+00
-2.38950E-01	-4.38205E-01	1.15499E+00	-1.34080E+00
-4.95104E-01	1.58379E-01	1.15444E+00	-1.33503E+00
5.46099E-02	5.49692E-01	1.15397E+00	-1.32946E+00
5.74043E-01	8.07423E-02	1.15330E+00	-1.32392E+00
2.18824E-01	-5.46704E-01	1.15275E+00	-1.31823E+00
-4.87158E-01	-3.28035E-01	1.15234E+00	-1.31271E+00
-4.17923E-01	4.27287E-01	1.15192E+00	-1.30738E+00
3.59346E-01	5.18958E-01	1.15132E+00	-1.30216E+00
6.23448E-01	-2.45848E-01	1.15062E+00	-1.29679E+00
-8.40932E-02	-6.82795E-01	1.15012E+00	-1.29137E+00
-6.75082E-01	-7.57077E-02	1.14962E+00	-1.28624E+00
-1.97221E-01	6.40273E-01	1.14887E+00	-1.28106E+00
6.18898E-01	3.10599E-01	1.14816E+00	-1.27571E+00
4.61006E-01	-5.82595E-01	1.14762E+00	-1.27032E+00
-4.71802E-01	-6.23707E-01	1.14719E+00	-1.26512E+00
-7.23214E-01	2.93723E-01	1.14660E+00	-1.26002E+00
1.26532E-01	7.40380E-01	1.14595E+00	-1.25475E+00
7.43256E-01	-8.90749E-03	1.14557E+00	-1.24942E+00
1.18804E-01	-7.80364E-01	1.14525E+00	-1.24435E+00
-7.93868E-01	-3.18354E-01	1.14481E+00	-1.23931E+00
-5.40270E-01	6.98169E-01	1.14443E+00	-1.23416E+00
5.16960E-01	6.77211E-01	1.14432E+00	-1.22909E+00
7.18934E-01	-3.62233E-01	1.14435E+00	-1.22442E+00
-2.69829E-01	-7.69314E-01	1.14410E+00	-1.22024E+00
-8.81796E-01	1.41168E-01	1.14296E+00	-1.21601E+00
-1.01864E-01	9.59279E-01	1.14191E+00	-1.21084E+00
8.88530E-01	3.75992E-01	1.14139E+00	-1.20574E+00
5.39236E-01	-7.18396E-01	1.14086E+00	-1.20078E+00
-5.99221E-01	-5.99043E-01	1.14037E+00	-1.19572E+00
-7.02242E-01	5.55797E-01	1.14011E+00	-1.19054E+00
4.41537E-01	9.01309E-01	1.14035E+00	-1.18554E+00
1.05017E+00	-1.65236E-01	1.14072E+00	-1.18142E+00
1.46334E-01	-1.00959E+00	1.14013E+00	-1.17757E+00
-8.63780E-01	-3.17005E-01	1.13933E+00	-1.17314E+00
-3.82843E-01	8.03488E-01	1.13871E+00	-1.16861E+00
8.32041E-01	5.38859E-01	1.13805E+00	-1.16405E+00
8.28210E-01	-7.47108E-01	1.13744E+00	-1.15936E+00
-4.50792E-01	-1.04727E+00	1.13700E+00	-1.15458E+00
-1.03597E+00	1.22735E-01	1.13674E+00	-1.14997E+00
-3.04404E-02	9.24901E-01	1.13636E+00	-1.14546E+00
9.44232E-01	8.60276E-02	1.13604E+00	-1.14085E+00
2.89710E-01	-1.06358E+00	1.13590E+00	-1.13630E+00
-1.01987E+00	-6.64698E-01	1.13578E+00	-1.13201E+00
-9.43345E-01	7.18073E-01	1.13553E+00	-1.12782E+00
3.98557E-01	9.53800E-01	1.13514E+00	-1.12360E+00
8.83661E-01	-2.90928E-01	1.13481E+00	-1.11925E+00
-2.63977E-01	-9.98106E-01	1.13460E+00	-1.11509E+00
-1.22009E+00	2.22145E-02	1.13419E+00	-1.11100E+00
-4.25324E-01	1.22446E+00	1.13372E+00	-1.10677E+00
9.30855E-01	7.44181E-01	1.13340E+00	-1.10250E+00
7.62736E-01	-6.46162E-01	1.13312E+00	-1.09834E+00
-6.12116E-01	-7.34747E-01	1.13279E+00	-1.09430E+00
-9.52571E-01	6.31742E-01	1.13228E+00	-1.09021E+00
3.64511E-01	1.27998E+00	1.13184E+00	-1.08595E+00
1.33244E+00	1.35624E-01	1.13156E+00	-1.08173E+00
4.68037E-01	-1.05811E+00	1.13130E+00	-1.07762E+00
-8.33068E-01	-4.76023E-01	1.13096E+00	-1.07355E+00
-4.86489E-01	8.97183E-01	1.13067E+00	-1.06937E+00
9.78267E-01	8.07617E-01	1.13056E+00	-1.06527E+00
1.23315E+00	-6.99428E-01	1.13040E+00	-1.06147E+00
-1.71778E-01	-1.32637E+00	1.12992E+00	-1.05763E+00
-1.07845E+00	-1.42927E-01	1.12950E+00	-1.05350E+00
-1.19109E-01	9.33466E-01	1.12934E+00	-1.04940E+00
1.11393E+00	1.59877E-01	1.12924E+00	-1.04559E+00
5.75845E-01	-1.26594E+00	1.12886E+00	-1.04182E+00
-9.88700E-01	-1.08231E+00	1.12847E+00	-1.03781E+00
-1.20188E+00	4.61118E-01	1.12846E+00	-1.03383E+00
1.96790E-01	9.82756E-01	1.12834E+00	-1.03038E+00
9.31859E-01	-2.73829E-01	1.12761E+00	-1.02685E+00
-2.13710E-01	-1.23787E+00	1.12684E+00	-1.02261E+00
-1.46322E+00	-2.80791E-01	1.12689E+00	-1.01818E+00
-8.42410E-01	1.19841E+00	1.12727E+00	-1.01459E+00
6.98134E-01	9.68156E-01	1.12687E+00	-1.01135E+00
7.75428E-01	-5.14825E-01	1.12636E+00	-1.00748E+00
-6.63903E-01	-8.24872E-01	1.12608E+00	-1.00374E+00
-1.25539E+00	5.96742E-01	1.12580E+00	-9.99920E-01
4.56975E-02	1.54837E+00	1.12561E+00	-9.96231E-01
1.30298E+00	5.39033E-01	1.12525E+00	-9.92539E-01
6.46772E-01	-8.54433E-01	1.12506E+00	-9.88615E-01
-7.77461E-01	-4.73894E-01	1.12516E+00	-9.85030E-01
-6.21700E-01	1.01227E+00	1.12487E+00	-9.81592E-01
9.49845E-01	1.16516E+00	1.12477E+00	-9.78105E-01
1.51210E+00	-3.67962E-01	1.12425E+00	-9.74851E-01
2.04638E-01	-1.28858E+00	1.12355E+00	-9.71036E-01
-9.10791E-01	-2.69163E-01	1.12337E+00	-9.66980E-01
-1.06412E-01	9.57623E-01	1.12354E+00	-9.63307E-01
1.28472E+00	3.42919E-01	1.12352E+00	-9.59998E-01
9.78095E-01	-1.23657E+00	1.12325E+00	-9.56683E-01
-6.50595E-01	-1.35837E+00	1.12286E+00	-9.53266E-01
-1.15446E+00	1.25190E-01	1.12252E+00	-9.49706E-01
1.27528E-01	8.59731E-01	1.12225E+00	-9.46163E-01
1.03794E+00	-2.91092E-01	1.12196E+00	-9.42588E-01
1.77861E-02	-1.45561E+00	1.12183E+00	-9.38942E-01
-1.42768E+00	-7.15722E-01	1.12183E+00	-9.35508E-01
-1.10374E+00	8.62785E-01	1.12171E+00	-9.32201E-01
4.16127E-01	9.12977E-01	1.12151E+00	-9.28964E-01
7.06055E-01	-5.04656E-01	1.12114E+00	-9.25652E-01
-6.79657E-01	-1.01269E+00	1.12081E+00	-9.22203E-01
-1.51053E+00	3.19015E-01	1.12057E+00	-9.18758E-01
-4.07698E-01	1.50426E+00	1.12030E+00	-9.15287E-01
9.81968E-01	7.75009E-01	1.12022E+00	-9.11763E-01
5.87947E-01	-6.39127E-01	1.12022E+00	-9.08458E-01
-8.26589E-01	-4.66136E-01	1.12012E+00	-9.05267E-01
-8.88073E-01	1.02159E+00	1.11992E+00	-9.02117E-01
