jMRUI Data Textfile
 
Filename: NAA.txt
 
PointsInDataset: 2048
DatasetsInFile: 1
SamplingInterval: 5.00000E-01
ZeroOrderPhase: 0E0
BeginTime: 0E0
TransmitterFrequency: 1.27740E+08
MagneticField: 0E0
TypeOfNucleus: 0E0
NameOfPatient: 
DateOfExperiment: 
Spectrometer: Vespa-Simulation
AdditionalInfo: see 'readme' file for Vespa-Simulation output synopsis
 
  
Signal and FFT 
sig(real)	sig(imag)	fft(real)	fft(imag)
Signal 1 out of 1 in file
4.60096E+00	-2.69038E-01	2.61883E+00	-4.84203E+00
2.11014E+00	-2.63969E+00	2.59806E+00	-4.79094E+00
-2.27176E+00	-2.67069E+00	2.57749E+00	-4.74092E+00
-3.87632E+00	-2.88840E-01	2.55754E+00	-4.69156E+00
-1.18457E+00	2.33307E+00	2.53862E+00	-4.64348E+00
2.69565E+00	2.64064E+00	2.52041E+00	-4.59645E+00
3.64297E+00	1.92421E-01	2.50288E+00	-4.55061E+00
9.48732E-01	-2.66087E+00	2.48635E+00	-4.50516E+00
-2.27382E+00	-2.97533E+00	2.47090E+00	-4.46149E+00
-2.72907E+00	-3.34174E-01	2.45616E+00	-4.41854E+00
-3.34226E-01	2.49828E+00	2.44153E+00	-4.37668E+00
2.12076E+00	2.43712E+00	2.42808E+00	-4.33519E+00
2.16650E+00	-4.83873E-01	2.41536E+00	-4.29458E+00
4.74643E-02	-3.02446E+00	2.40370E+00	-4.25495E+00
-1.91224E+00	-2.32068E+00	2.39249E+00	-4.21634E+00
-1.83537E+00	8.42982E-01	2.38193E+00	-4.17852E+00
-4.54590E-03	2.88636E+00	2.37183E+00	-4.14148E+00
1.65952E+00	1.51716E+00	2.36233E+00	-4.10516E+00
1.53512E+00	-1.65135E+00	2.35329E+00	-4.06955E+00
-2.14374E-01	-2.98163E+00	2.34482E+00	-4.03455E+00
-1.84347E+00	-9.89252E-01	2.33695E+00	-4.00024E+00
-1.68712E+00	2.01828E+00	2.32970E+00	-3.96681E+00
1.81752E-01	2.65276E+00	2.32257E+00	-3.93437E+00
1.89100E+00	2.86166E-01	2.31549E+00	-3.90238E+00
1.57176E+00	-2.35367E+00	2.30858E+00	-3.87071E+00
-6.09391E-01	-2.34220E+00	2.30236E+00	-3.83906E+00
-2.39190E+00	2.32292E-01	2.29710E+00	-3.80842E+00
-1.71538E+00	2.52054E+00	2.29181E+00	-3.77882E+00
9.13786E-01	2.10653E+00	2.28645E+00	-3.74964E+00
2.71646E+00	-4.80643E-01	2.28132E+00	-3.72076E+00
1.58773E+00	-2.50035E+00	2.27649E+00	-3.69234E+00
-1.43886E+00	-1.92664E+00	2.27190E+00	-3.66434E+00
-3.11772E+00	5.81613E-01	2.26755E+00	-3.63677E+00
-1.51143E+00	2.50190E+00	2.26349E+00	-3.60964E+00
1.77021E+00	1.99208E+00	2.25957E+00	-3.58303E+00
3.22898E+00	-3.97046E-01	2.25572E+00	-3.55675E+00
1.29097E+00	-2.34892E+00	2.25211E+00	-3.53071E+00
-1.96471E+00	-2.01529E+00	2.24884E+00	-3.50506E+00
-3.08972E+00	2.50885E-01	2.24574E+00	-3.47991E+00
-9.98798E-01	2.24478E+00	2.24279E+00	-3.45512E+00
1.96746E+00	2.02755E+00	2.23984E+00	-3.43086E+00
2.69587E+00	-1.65589E-01	2.23688E+00	-3.40653E+00
6.21683E-01	-2.11795E+00	2.23457E+00	-3.38250E+00
-1.87052E+00	-1.84909E+00	2.23224E+00	-3.35935E+00
-2.17585E+00	3.21900E-01	2.22973E+00	-3.33611E+00
-1.97674E-01	2.06658E+00	2.22763E+00	-3.31323E+00
1.77915E+00	1.51309E+00	2.22563E+00	-3.29080E+00
1.67449E+00	-7.01830E-01	2.22348E+00	-3.26876E+00
-2.44013E-01	-2.09335E+00	2.22133E+00	-3.24670E+00
-1.82002E+00	-1.07529E+00	2.21949E+00	-3.22483E+00
-1.37316E+00	1.22965E+00	2.21782E+00	-3.20338E+00
5.81161E-01	2.20122E+00	2.21607E+00	-3.18228E+00
1.94628E+00	6.66244E-01	2.21426E+00	-3.16117E+00
1.24746E+00	-1.72732E+00	2.21285E+00	-3.14023E+00
-8.44483E-01	-2.29948E+00	2.21156E+00	-3.11974E+00
-2.18126E+00	-3.24796E-01	2.21013E+00	-3.09967E+00
-1.32044E+00	2.11803E+00	2.20850E+00	-3.07946E+00
9.58586E-01	2.39055E+00	2.20736E+00	-3.05924E+00
2.36783E+00	1.59054E-01	2.20639E+00	-3.03958E+00
1.41382E+00	-2.24637E+00	2.20540E+00	-3.02019E+00
-1.01455E+00	-2.32463E+00	2.20428E+00	-3.00101E+00
-2.46790E+00	-2.82693E-02	2.20329E+00	-2.98192E+00
-1.43053E+00	2.24725E+00	2.20233E+00	-2.96303E+00
1.06584E+00	2.20136E+00	2.20147E+00	-2.94442E+00
2.46015E+00	-2.94737E-02	2.20041E+00	-2.92588E+00
1.32314E+00	-2.10997E+00	2.19963E+00	-2.90737E+00
-1.13320E+00	-1.96010E+00	2.19894E+00	-2.88917E+00
-2.33194E+00	1.59610E-01	2.19827E+00	-2.87127E+00
-1.05717E+00	2.01138E+00	2.19732E+00	-2.85347E+00
1.28279E+00	1.72224E+00	2.19661E+00	-2.83553E+00
2.19535E+00	-3.28433E-01	2.19602E+00	-2.81786E+00
7.63984E-01	-1.96706E+00	2.19555E+00	-2.80044E+00
-1.42604E+00	-1.50420E+00	2.19484E+00	-2.78315E+00
-2.03739E+00	5.29815E-01	2.19438E+00	-2.76573E+00
-4.70350E-01	1.97170E+00	2.19417E+00	-2.74863E+00
1.56073E+00	1.30825E+00	2.19401E+00	-2.73207E+00
1.90352E+00	-7.37555E-01	2.19315E+00	-2.71563E+00
2.38066E-01	-1.98721E+00	2.19254E+00	-2.69852E+00
-1.64485E+00	-1.12641E+00	2.19255E+00	-2.68179E+00
-1.77452E+00	9.05401E-01	2.19263E+00	-2.66569E+00
-5.95897E-02	1.93979E+00	2.19194E+00	-2.64996E+00
1.66439E+00	9.07802E-01	2.19127E+00	-2.63333E+00
1.59351E+00	-1.03964E+00	2.19138E+00	-2.61702E+00
-1.56413E-01	-1.80780E+00	2.19163E+00	-2.60140E+00
-1.69968E+00	-6.18867E-01	2.19087E+00	-2.58633E+00
-1.39263E+00	1.19260E+00	2.18999E+00	-2.56974E+00
4.15395E-01	1.66647E+00	2.19065E+00	-2.55363E+00
1.75333E+00	3.31606E-01	2.19136E+00	-2.53879E+00
1.14964E+00	-1.32919E+00	2.18979E+00	-2.52490E+00
-7.54486E-01	-1.50890E+00	2.18863E+00	-2.50661E+00
-1.86497E+00	-1.19050E-02	2.19190E+00	-2.49190E+00
-9.08480E-01	1.55519E+00	2.19039E+00	-2.47967E+00
1.13266E+00	1.49640E+00	2.18831E+00	-2.46204E+00
2.03356E+00	-1.80465E-01	2.19088E+00	-2.44679E+00
7.44802E-01	-1.75008E+00	2.19055E+00	-2.43340E+00
-1.41467E+00	-1.54194E+00	2.18972E+00	-2.41870E+00
-2.13377E+00	3.15938E-01	2.18952E+00	-2.40308E+00
-5.95743E-01	1.96746E+00	2.19053E+00	-2.38859E+00
1.62234E+00	1.68342E+00	2.19031E+00	-2.37475E+00
2.21560E+00	-3.43616E-01	2.18991E+00	-2.36030E+00
5.79090E-01	-2.11150E+00	2.18979E+00	-2.34542E+00
-1.59226E+00	-1.79944E+00	2.19044E+00	-2.33110E+00
-2.10980E+00	3.36863E-01	2.19038E+00	-2.31730E+00
-5.30727E-01	2.15182E+00	2.19015E+00	-2.30312E+00
1.48816E+00	1.78350E+00	2.19009E+00	-2.28862E+00
1.96068E+00	-3.94612E-01	2.19067E+00	-2.27438E+00
5.40733E-01	-2.13078E+00	2.19100E+00	-2.26074E+00
-1.26798E+00	-1.65109E+00	2.19095E+00	-2.24710E+00
-1.70979E+00	4.71168E-01	2.19078E+00	-2.23301E+00
-4.79238E-01	1.95832E+00	2.19131E+00	-2.21894E+00
1.10365E+00	1.29440E+00	2.19170E+00	-2.20546E+00
1.47762E+00	-6.81430E-01	2.19190E+00	-2.19195E+00
3.59614E-01	-1.77868E+00	2.19207E+00	-2.17838E+00
-1.04695E+00	-8.90129E-01	2.19251E+00	-2.16493E+00
-1.29866E+00	8.67662E-01	2.19266E+00	-2.15192E+00
-1.73109E-01	1.50933E+00	2.19244E+00	-2.13863E+00
1.10553E+00	4.13400E-01	2.19236E+00	-2.12505E+00
1.13950E+00	-1.08279E+00	2.19261E+00	-2.11142E+00
-1.37070E-01	-1.28419E+00	2.19292E+00	-2.09813E+00
-1.32434E+00	-2.83837E-02	2.19308E+00	-2.08477E+00
-1.04520E+00	1.23043E+00	2.19348E+00	-2.07129E+00
4.81593E-01	1.10418E+00	2.19419E+00	-2.05811E+00
1.57079E+00	-2.34260E-01	2.19468E+00	-2.04538E+00
9.08393E-01	-1.32293E+00	2.19482E+00	-2.03246E+00
-8.86681E-01	-1.01377E+00	2.19523E+00	-2.01953E+00
-1.82644E+00	3.62584E-01	2.19553E+00	-2.00671E+00
-7.57166E-01	1.40194E+00	2.19578E+00	-1.99401E+00
1.24928E+00	1.06006E+00	2.19594E+00	-1.98116E+00
1.99059E+00	-3.44548E-01	2.19619E+00	-1.96833E+00
5.83737E-01	-1.46008E+00	2.19648E+00	-1.95548E+00
-1.49209E+00	-1.18698E+00	2.19684E+00	-1.94279E+00
-1.99204E+00	2.69856E-01	2.19709E+00	-1.93009E+00
-3.77683E-01	1.53904E+00	2.19740E+00	-1.91738E+00
1.60830E+00	1.34446E+00	2.19767E+00	-1.90467E+00
1.87678E+00	-2.18216E-01	2.19814E+00	-1.89195E+00
2.34387E-01	-1.65403E+00	2.19854E+00	-1.87939E+00
-1.51918E+00	-1.48280E+00	2.19912E+00	-1.86681E+00
-1.60901E+00	2.02402E-01	2.19954E+00	-1.85466E+00
-1.07350E-01	1.70006E+00	2.19960E+00	-1.84220E+00
1.33015E+00	1.41518E+00	2.20005E+00	-1.82955E+00
1.30558E+00	-3.92335E-01	2.20046E+00	-1.81731E+00
2.36070E-02	-1.79505E+00	2.20063E+00	-1.80470E+00
-1.12884E+00	-1.26684E+00	2.20139E+00	-1.79219E+00
-1.07632E+00	6.01379E-01	2.20190E+00	-1.78010E+00
-1.85971E-02	1.72450E+00	2.20228E+00	-1.76796E+00
9.30243E-01	8.62478E-01	2.20249E+00	-1.75574E+00
8.68114E-01	-9.71882E-01	2.20295E+00	-1.74332E+00
-9.81862E-02	-1.67596E+00	2.20344E+00	-1.73131E+00
-1.00807E+00	-4.66377E-01	2.20354E+00	-1.71921E+00
-9.47823E-01	1.24904E+00	2.20375E+00	-1.70661E+00
7.28229E-02	1.52106E+00	2.20454E+00	-1.69428E+00
1.05536E+00	8.31816E-02	2.20498E+00	-1.68232E+00
9.32645E-01	-1.40713E+00	2.20533E+00	-1.67001E+00
-2.96415E-01	-1.29997E+00	2.20609E+00	-1.65784E+00
-1.40703E+00	2.28430E-01	2.20655E+00	-1.64613E+00
-1.14125E+00	1.48559E+00	2.20656E+00	-1.63391E+00
3.65922E-01	1.19096E+00	2.20722E+00	-1.62157E+00
1.55772E+00	-2.18240E-01	2.20776E+00	-1.60941E+00
1.07898E+00	-1.22312E+00	2.20865E+00	-1.59741E+00
-6.43620E-01	-8.84200E-01	2.20911E+00	-1.58580E+00
-1.74364E+00	3.18871E-01	2.20938E+00	-1.57389E+00
-9.63499E-01	1.16083E+00	2.20972E+00	-1.56183E+00
8.72696E-01	9.22722E-01	2.21019E+00	-1.54983E+00
1.73428E+00	-4.92044E-02	2.21055E+00	-1.53781E+00
6.85130E-01	-8.10032E-01	2.21114E+00	-1.52572E+00
-1.04252E+00	-6.94071E-01	2.21155E+00	-1.51390E+00
-1.47445E+00	1.51906E-01	2.21201E+00	-1.50175E+00
-1.62953E-01	9.20347E-01	2.21251E+00	-1.48986E+00
1.34662E+00	8.43949E-01	2.21308E+00	-1.47782E+00
1.35011E+00	-6.69687E-02	2.21339E+00	-1.46605E+00
-7.29260E-02	-9.27644E-01	2.21382E+00	-1.45366E+00
-1.24246E+00	-7.88002E-01	2.21468E+00	-1.44177E+00
-8.60192E-01	3.12455E-01	2.21519E+00	-1.42989E+00
5.71460E-01	1.21590E+00	2.21569E+00	-1.41791E+00
1.43929E+00	8.18597E-01	2.21634E+00	-1.40605E+00
8.60359E-01	-6.06449E-01	2.21680E+00	-1.39407E+00
-4.53521E-01	-1.53074E+00	2.21751E+00	-1.38223E+00
-1.11260E+00	-8.30103E-01	2.21788E+00	-1.37043E+00
-5.36239E-01	8.25997E-01	2.21835E+00	-1.35842E+00
5.93284E-01	1.58621E+00	2.21887E+00	-1.34647E+00
1.16384E+00	5.02266E-01	2.21935E+00	-1.33455E+00
7.04398E-01	-1.29683E+00	2.21975E+00	-1.32252E+00
-3.07780E-01	-1.81188E+00	2.22029E+00	-1.31038E+00
-9.68740E-01	-4.52558E-01	2.22090E+00	-1.29835E+00
-7.14430E-01	1.25985E+00	2.22144E+00	-1.28630E+00
2.32875E-01	1.41944E+00	2.22203E+00	-1.27423E+00
1.01379E+00	-1.06638E-01	2.22252E+00	-1.26210E+00
8.34834E-01	-1.58064E+00	2.22329E+00	-1.24967E+00
-2.46563E-01	-1.40725E+00	2.22438E+00	-1.23780E+00
-1.22220E+00	1.18955E-01	2.22493E+00	-1.22597E+00
-1.04487E+00	1.27565E+00	2.22560E+00	-1.21388E+00
