jMRUI Data Textfile
 
Filename: PE.txt
 
PointsInDataset: 2048
DatasetsInFile: 1
SamplingInterval: 5.00000E-01
ZeroOrderPhase: 0E0
BeginTime: 0E0
TransmitterFrequency: 1.27740E+08
MagneticField: 0E0
TypeOfNucleus: 0E0
NameOfPatient: 
DateOfExperiment: 
Spectrometer: Vespa-Simulation
AdditionalInfo: see 'readme' file for Vespa-Simulation output synopsis
 
  
Signal and FFT 
sig(real)	sig(imag)	fft(real)	fft(imag)
Signal 1 out of 1 in file
2.41591E+00	8.72545E-05	1.34726E+00	-6.10965E+00
2.14739E+00	-1.01802E+00	1.34400E+00	-6.05481E+00
1.44541E+00	-1.76799E+00	1.34087E+00	-6.00102E+00
5.14307E-01	-2.07889E+00	1.33791E+00	-5.94821E+00
-3.89293E-01	-1.91637E+00	1.33502E+00	-5.89644E+00
-1.03900E+00	-1.38523E+00	1.33219E+00	-5.84557E+00
-1.30712E+00	-6.86854E-01	1.32944E+00	-5.79562E+00
-1.19690E+00	-4.76915E-02	1.32676E+00	-5.74653E+00
-8.29823E-01	3.56006E-01	1.32415E+00	-5.69822E+00
-3.94360E-01	4.51711E-01	1.32172E+00	-5.65077E+00
-7.56838E-02	2.85635E-01	1.31933E+00	-5.60416E+00
8.89696E-03	-3.82785E-03	1.31701E+00	-5.55833E+00
-1.52987E-01	-2.42939E-01	1.31478E+00	-5.51326E+00
-4.70534E-01	-2.88689E-01	1.31260E+00	-5.46898E+00
-7.87926E-01	-8.08490E-02	1.31045E+00	-5.42537E+00
-9.44043E-01	3.37415E-01	1.30840E+00	-5.38245E+00
-8.32160E-01	8.36261E-01	1.30644E+00	-5.34026E+00
-4.38975E-01	1.24599E+00	1.30448E+00	-5.29874E+00
1.49824E-01	1.41686E+00	1.30262E+00	-5.25784E+00
7.78256E-01	1.27086E+00	1.30082E+00	-5.21759E+00
1.27201E+00	8.28009E-01	1.29908E+00	-5.17799E+00
1.49542E+00	1.99313E-01	1.29737E+00	-5.13900E+00
1.39406E+00	-4.50281E-01	1.29568E+00	-5.10062E+00
1.00928E+00	-9.55218E-01	1.29403E+00	-5.06276E+00
4.61111E-01	-1.20064E+00	1.29247E+00	-5.02548E+00
-9.33205E-02	-1.15477E+00	1.29094E+00	-4.98876E+00
-5.10893E-01	-8.72730E-01	1.28944E+00	-4.95256E+00
-7.05718E-01	-4.72069E-01	1.28802E+00	-4.91689E+00
-6.70729E-01	-8.99268E-02	1.28660E+00	-4.88178E+00
-4.71875E-01	1.62920E-01	1.28521E+00	-4.84712E+00
-2.18707E-01	2.35588E-01	1.28388E+00	-4.81295E+00
-2.28255E-02	1.47826E-01	1.28261E+00	-4.77928E+00
4.09777E-02	-2.39986E-02	1.28134E+00	-4.74612E+00
-4.20900E-02	-1.79253E-01	1.28005E+00	-4.71339E+00
-2.26145E-01	-2.31428E-01	1.27880E+00	-4.68101E+00
-4.25195E-01	-1.39022E-01	1.27770E+00	-4.64910E+00
-5.46576E-01	8.12105E-02	1.27659E+00	-4.61769E+00
-5.24934E-01	3.62157E-01	1.27553E+00	-4.58669E+00
-3.45111E-01	6.11392E-01	1.27445E+00	-4.55618E+00
-4.66393E-02	7.43973E-01	1.27332E+00	-4.52603E+00
2.90561E-01	7.11212E-01	1.27223E+00	-4.49620E+00
5.73573E-01	5.16075E-01	1.27119E+00	-4.46676E+00
7.26815E-01	2.10698E-01	1.27018E+00	-4.43764E+00
7.15248E-01	-1.22108E-01	1.26931E+00	-4.40891E+00
5.53047E-01	-3.96108E-01	1.26846E+00	-4.38066E+00
2.95969E-01	-5.48325E-01	1.26751E+00	-4.35282E+00
2.10934E-02	-5.56213E-01	1.26653E+00	-4.32523E+00
-1.98564E-01	-4.40708E-01	1.26561E+00	-4.29792E+00
-3.15759E-01	-2.55179E-01	1.26475E+00	-4.27097E+00
-3.20410E-01	-6.52571E-02	1.26391E+00	-4.24432E+00
-2.37953E-01	7.31135E-02	1.26312E+00	-4.21802E+00
-1.16464E-01	1.29978E-01	1.26237E+00	-4.19204E+00
-7.98080E-03	1.07368E-01	1.26164E+00	-4.16642E+00
4.91841E-02	3.40564E-02	1.26088E+00	-4.14113E+00
4.14235E-02	-4.78740E-02	1.26007E+00	-4.11611E+00
-1.88226E-02	-9.92635E-02	1.25934E+00	-4.09131E+00
-1.00674E-01	-9.71504E-02	1.25862E+00	-4.06687E+00
-1.67767E-01	-4.09578E-02	1.25789E+00	-4.04269E+00
-1.91574E-01	4.96585E-02	1.25716E+00	-4.01873E+00
-1.60535E-01	1.43582E-01	1.25654E+00	-3.99504E+00
-8.24397E-02	2.09871E-01	1.25593E+00	-3.97169E+00
1.99267E-02	2.28029E-01	1.25527E+00	-3.94861E+00
1.17535E-01	1.93622E-01	1.25463E+00	-3.92575E+00
1.84839E-01	1.18023E-01	1.25403E+00	-3.90319E+00
2.07089E-01	2.31867E-02	1.25334E+00	-3.88085E+00
1.83276E-01	-6.61133E-02	1.25271E+00	-3.85868E+00
1.24436E-01	-1.29705E-01	1.25212E+00	-3.83672E+00
4.86891E-02	-1.56731E-01	1.25164E+00	-3.81502E+00
-2.47892E-02	-1.46809E-01	1.25117E+00	-3.79365E+00
-8.07655E-02	-1.07985E-01	1.25064E+00	-3.77250E+00
-1.10654E-01	-5.29290E-02	1.25017E+00	-3.75157E+00
-1.12717E-01	4.96361E-03	1.24966E+00	-3.73097E+00
-9.05923E-02	5.43752E-02	1.24904E+00	-3.71051E+00
-5.12037E-02	8.73693E-02	1.24845E+00	-3.69020E+00
-3.03119E-03	9.95120E-02	1.24788E+00	-3.67006E+00
4.49508E-02	8.95922E-02	1.24736E+00	-3.65006E+00
8.39054E-02	5.94936E-02	1.24695E+00	-3.63028E+00
1.05906E-01	1.43444E-02	1.24659E+00	-3.61074E+00
1.05217E-01	-3.74307E-02	1.24632E+00	-3.59155E+00
8.00448E-02	-8.48387E-02	1.24576E+00	-3.57276E+00
3.40680E-02	-1.16248E-01	1.24497E+00	-3.55374E+00
-2.31840E-02	-1.22400E-01	1.24458E+00	-3.53469E+00
-7.78016E-02	-9.96462E-02	1.24439E+00	-3.51610E+00
-1.14944E-01	-5.21735E-02	1.24409E+00	-3.49781E+00
-1.23425E-01	8.04010E-03	1.24382E+00	-3.47979E+00
-9.98944E-02	6.40098E-02	1.24325E+00	-3.46199E+00
-5.09601E-02	9.88209E-02	1.24274E+00	-3.44409E+00
7.96625E-03	1.01425E-01	1.24227E+00	-3.42646E+00
5.71693E-02	7.10816E-02	1.24172E+00	-3.40881E+00
7.92055E-02	1.85871E-02	1.24152E+00	-3.39117E+00
6.54049E-02	-3.65818E-02	1.24150E+00	-3.37421E+00
1.98118E-02	-7.26066E-02	1.24099E+00	-3.35748E+00
-4.11746E-02	-7.31615E-02	1.24041E+00	-3.34062E+00
-9.37327E-02	-3.39585E-02	1.23996E+00	-3.32377E+00
-1.14764E-01	3.45173E-02	1.23965E+00	-3.30708E+00
-9.05010E-02	1.09481E-01	1.23942E+00	-3.29060E+00
-2.24679E-02	1.63008E-01	1.23923E+00	-3.27436E+00
7.16154E-02	1.71707E-01	1.23900E+00	-3.25837E+00
1.62696E-01	1.25541E-01	1.23867E+00	-3.24253E+00
2.19709E-01	3.25340E-02	1.23829E+00	-3.22680E+00
2.20248E-01	-8.25591E-02	1.23789E+00	-3.21114E+00
1.58948E-01	-1.85589E-01	1.23752E+00	-3.19557E+00
5.04049E-02	-2.44067E-01	1.23719E+00	-3.18013E+00
-7.46967E-02	-2.38249E-01	1.23687E+00	-3.16482E+00
-1.79138E-01	-1.68332E-01	1.23661E+00	-3.14961E+00
-2.31407E-01	-5.51143E-02	1.23638E+00	-3.13462E+00
-2.16395E-01	6.64219E-02	1.23611E+00	-3.11976E+00
-1.40752E-01	1.58521E-01	1.23584E+00	-3.10501E+00
-3.09392E-02	1.93333E-01	1.23559E+00	-3.09040E+00
7.55729E-02	1.62403E-01	1.23532E+00	-3.07593E+00
1.43061E-01	7.96235E-02	1.23503E+00	-3.06156E+00
1.49809E-01	-2.35057E-02	1.23475E+00	-3.04729E+00
9.56878E-02	-1.08787E-01	1.23451E+00	-3.03312E+00
2.25378E-03	-1.44685E-01	1.23428E+00	-3.01910E+00
-9.47672E-02	-1.17491E-01	1.23406E+00	-3.00522E+00
-1.58016E-01	-3.63237E-02	1.23379E+00	-2.99147E+00
-1.61793E-01	6.98369E-02	1.23353E+00	-2.97777E+00
-1.01386E-01	1.62185E-01	1.23329E+00	-2.96420E+00
4.87223E-03	2.05682E-01	1.23305E+00	-2.95074E+00
1.21629E-01	1.81558E-01	1.23281E+00	-2.93738E+00
2.08602E-01	9.42688E-02	1.23259E+00	-2.92413E+00
2.34584E-01	-2.96135E-02	1.23235E+00	-2.91098E+00
1.88423E-01	-1.50176E-01	1.23216E+00	-2.89794E+00
8.32185E-02	-2.27727E-01	1.23192E+00	-2.88504E+00
-4.78544E-02	-2.36391E-01	1.23166E+00	-2.87215E+00
-1.62689E-01	-1.73047E-01	1.23152E+00	-2.85935E+00
-2.24448E-01	-5.84898E-02	1.23141E+00	-2.84676E+00
-2.14039E-01	6.95883E-02	1.23120E+00	-2.83434E+00
-1.36488E-01	1.69381E-01	1.23091E+00	-2.82193E+00
-1.90650E-02	2.09101E-01	1.23066E+00	-2.80958E+00
9.82162E-02	1.77607E-01	1.23039E+00	-2.79726E+00
1.76244E-01	8.78482E-02	1.23023E+00	-2.78499E+00
1.90086E-01	-2.79049E-02	1.23017E+00	-2.77290E+00
1.37187E-01	-1.29395E-01	1.23003E+00	-2.76101E+00
3.77940E-02	-1.82261E-01	1.22986E+00	-2.74919E+00
-7.24482E-02	-1.69662E-01	1.22960E+00	-2.73751E+00
-1.55045E-01	-9.76836E-02	1.22926E+00	-2.72576E+00
-1.81952E-01	7.23676E-03	1.22905E+00	-2.71401E+00
-1.45027E-01	1.07888E-01	1.22893E+00	-2.70239E+00
-5.84122E-02	1.69301E-01	1.22882E+00	-2.69087E+00
4.67838E-02	1.70827E-01	1.22880E+00	-2.67954E+00
1.33586E-01	1.12993E-01	1.22863E+00	-2.66840E+00
1.72049E-01	1.69141E-02	1.22835E+00	-2.65725E+00
1.49478E-01	-8.33801E-02	1.22812E+00	-2.64606E+00
7.45048E-02	-1.52923E-01	1.22795E+00	-2.63497E+00
-2.63027E-02	-1.67888E-01	1.22778E+00	-2.62397E+00
-1.17851E-01	-1.23533E-01	1.22762E+00	-2.61304E+00
-1.68716E-01	-3.54909E-02	1.22751E+00	-2.60216E+00
-1.61780E-01	6.59750E-02	1.22745E+00	-2.59144E+00
-9.97288E-02	1.46553E-01	1.22732E+00	-2.58086E+00
-3.68667E-03	1.79568E-01	1.22710E+00	-2.57032E+00
9.43643E-02	1.54754E-01	1.22691E+00	-2.55978E+00
1.62635E-01	8.11924E-02	1.22671E+00	-2.54931E+00
1.80055E-01	-1.63451E-02	1.22657E+00	-2.53886E+00
1.42903E-01	-1.06202E-01	1.22646E+00	-2.52855E+00
6.52921E-02	-1.60600E-01	1.22633E+00	-2.51827E+00
-2.63193E-02	-1.64629E-01	1.22625E+00	-2.50810E+00
-1.02502E-01	-1.20498E-01	1.22617E+00	-2.49806E+00
-1.40744E-01	-4.58405E-02	1.22600E+00	-2.48812E+00
-1.32478E-01	3.30642E-02	1.22579E+00	-2.47813E+00
-8.50201E-02	9.06134E-02	1.22565E+00	-2.46824E+00
-1.80353E-02	1.10343E-01	1.22549E+00	-2.45835E+00
4.39419E-02	8.98408E-02	1.22531E+00	-2.44861E+00
8.01613E-02	4.05370E-02	1.22522E+00	-2.43876E+00
8.04462E-02	-1.71955E-02	1.22514E+00	-2.42913E+00
4.79155E-02	-6.16673E-02	1.22515E+00	-2.41954E+00
-3.03053E-03	-7.74298E-02	1.22499E+00	-2.41016E+00
-5.24775E-02	-6.01762E-02	1.22486E+00	-2.40074E+00
-8.22198E-02	-1.74677E-02	1.22463E+00	-2.39135E+00
-8.19300E-02	3.46483E-02	1.22454E+00	-2.38200E+00
-5.21739E-02	7.76956E-02	1.22429E+00	-2.37269E+00
-3.49001E-03	9.72104E-02	1.22423E+00	-2.36338E+00
4.78497E-02	8.73283E-02	1.22416E+00	-2.35412E+00
8.56728E-02	5.21020E-02	1.22418E+00	-2.34507E+00
9.92225E-02	3.35396E-03	1.22413E+00	-2.33613E+00
8.61395E-02	-4.38292E-02	1.22393E+00	-2.32731E+00
5.23951E-02	-7.62627E-02	1.22362E+00	-2.31833E+00
9.46265E-03	-8.66185E-02	1.22350E+00	-2.30929E+00
-2.99698E-02	-7.49764E-02	1.22349E+00	-2.30042E+00
-5.61079E-02	-4.77388E-02	1.22341E+00	-2.29166E+00
-6.45971E-02	-1.46366E-02	1.22336E+00	-2.28292E+00
-5.68605E-02	1.48569E-02	1.22334E+00	-2.27434E+00
-3.84620E-02	3.43766E-02	1.22318E+00	-2.26589E+00
-1.64269E-02	4.18590E-02	1.22287E+00	-2.25734E+00
3.31228E-03	3.90176E-02	1.22266E+00	-2.24862E+00
1.74174E-02	2.96161E-02	1.22272E+00	-2.23997E+00
2.52431E-02	1.74999E-02	1.22284E+00	-2.23163E+00
2.78289E-02	5.25999E-03	1.22279E+00	-2.22346E+00
2.65163E-02	-6.02703E-03	1.22257E+00	-2.21526E+00
2.19745E-02	-1.61223E-02	1.22237E+00	-2.20697E+00
1.41040E-02	-2.45764E-02	1.22222E+00	-2.19871E+00
