jMRUI Data Textfile
 
Filename: Tau.txt
 
PointsInDataset: 2048
DatasetsInFile: 1
SamplingInterval: 5.00000E-01
ZeroOrderPhase: 0E0
BeginTime: 0E0
TransmitterFrequency: 1.27740E+08
MagneticField: 0E0
TypeOfNucleus: 0E0
NameOfPatient: 
DateOfExperiment: 
Spectrometer: Vespa-Simulation
AdditionalInfo: see 'readme' file for Vespa-Simulation output synopsis
 
  
Signal and FFT 
sig(real)	sig(imag)	fft(real)	fft(imag)
Signal 1 out of 1 in file
3.47829E+00	-1.78227E-06	1.77626E+00	-6.21530E+00
2.95679E+00	-1.80667E+00	1.77576E+00	-6.17858E+00
1.57260E+00	-3.06678E+00	1.77535E+00	-6.14218E+00
-2.55311E-01	-3.41312E+00	1.77496E+00	-6.10625E+00
-1.98058E+00	-2.75587E+00	1.77453E+00	-6.07066E+00
-3.09575E+00	-1.30580E+00	1.77420E+00	-6.03544E+00
-3.28426E+00	4.94108E-01	1.77387E+00	-6.00067E+00
-2.51172E+00	2.10622E+00	1.77353E+00	-5.96626E+00
-1.02989E+00	3.06164E+00	1.77318E+00	-5.93229E+00
7.05950E-01	3.09883E+00	1.77276E+00	-5.89862E+00
2.17899E+00	2.23605E+00	1.77236E+00	-5.86526E+00
2.96716E+00	7.57113E-01	1.77198E+00	-5.83222E+00
2.86589E+00	-8.82298E-01	1.77165E+00	-5.79951E+00
1.94107E+00	-2.19688E+00	1.77137E+00	-5.76717E+00
4.98639E-01	-2.81746E+00	1.77106E+00	-5.73523E+00
-1.01676E+00	-2.59588E+00	1.77073E+00	-5.70357E+00
-2.16044E+00	-1.63893E+00	1.77042E+00	-5.67225E+00
-2.61974E+00	-2.64180E-01	1.77007E+00	-5.64127E+00
-2.30013E+00	1.10536E+00	1.76970E+00	-5.61052E+00
-1.34119E+00	2.07263E+00	1.76939E+00	-5.58007E+00
-6.15954E-02	2.38282E+00	1.76908E+00	-5.54995E+00
1.14652E+00	1.99022E+00	1.76876E+00	-5.52009E+00
1.93860E+00	1.05822E+00	1.76851E+00	-5.49052E+00
2.11665E+00	-1.03420E-01	1.76825E+00	-5.46130E+00
1.67747E+00	-1.14101E+00	1.76798E+00	-5.43232E+00
7.98892E-01	-1.76518E+00	1.76776E+00	-5.40367E+00
-2.27355E-01	-1.83175E+00	1.76747E+00	-5.37534E+00
-1.09175E+00	-1.37245E+00	1.76713E+00	-5.34723E+00
-1.56059E+00	-5.70250E-01	1.76681E+00	-5.31932E+00
-1.53868E+00	3.08938E-01	1.76653E+00	-5.29166E+00
-1.08448E+00	1.00351E+00	1.76630E+00	-5.26423E+00
-3.77311E-01	1.33383E+00	1.76613E+00	-5.23712E+00
3.49063E-01	1.24756E+00	1.76594E+00	-5.21031E+00
8.82551E-01	8.21350E-01	1.76572E+00	-5.18380E+00
1.09430E+00	2.22965E-01	1.76542E+00	-5.15749E+00
9.67636E-01	-3.50455E-01	1.76515E+00	-5.13138E+00
5.89065E-01	-7.36191E-01	1.76489E+00	-5.10551E+00
1.08119E-01	-8.51230E-01	1.76461E+00	-5.07987E+00
-3.17503E-01	-7.06904E-01	1.76435E+00	-5.05438E+00
-5.72376E-01	-3.91715E-01	1.76420E+00	-5.02914E+00
-6.13325E-01	-3.17211E-02	1.76403E+00	-5.00419E+00
-4.71849E-01	2.55830E-01	1.76389E+00	-4.97947E+00
-2.31496E-01	3.99219E-01	1.76372E+00	-4.95509E+00
8.93837E-03	3.88368E-01	1.76340E+00	-4.93092E+00
1.71897E-01	2.67300E-01	1.76300E+00	-4.90679E+00
2.24629E-01	1.08728E-01	1.76275E+00	-4.88274E+00
1.82945E-01	-1.79324E-02	1.76262E+00	-4.85897E+00
9.63262E-02	-7.26560E-02	1.76252E+00	-4.83546E+00
2.20739E-02	-5.59210E-02	1.76245E+00	-4.81224E+00
-4.02421E-04	-2.23178E-03	1.76228E+00	-4.78931E+00
3.48756E-02	3.97219E-02	1.76199E+00	-4.76652E+00
1.00476E-01	3.12638E-02	1.76170E+00	-4.74384E+00
1.50116E-01	-3.78314E-02	1.76143E+00	-4.72129E+00
1.41115E-01	-1.43959E-01	1.76123E+00	-4.69890E+00
5.52425E-02	-2.39258E-01	1.76109E+00	-4.67670E+00
-9.06145E-02	-2.72004E-01	1.76098E+00	-4.65474E+00
-2.48451E-01	-2.09574E-01	1.76088E+00	-4.63301E+00
-3.56404E-01	-5.46815E-02	1.76075E+00	-4.61151E+00
-3.62856E-01	1.51810E-01	1.76055E+00	-4.59018E+00
-2.48056E-01	3.43050E-01	1.76033E+00	-4.56903E+00
-3.49208E-02	4.49269E-01	1.76002E+00	-4.54800E+00
2.15616E-01	4.23500E-01	1.75972E+00	-4.52700E+00
4.23513E-01	2.60469E-01	1.75959E+00	-4.50611E+00
5.16586E-01	1.49605E-03	1.75955E+00	-4.48549E+00
4.56004E-01	-2.76824E-01	1.75952E+00	-4.46510E+00
2.51397E-01	-4.86768E-01	1.75948E+00	-4.44501E+00
-4.01438E-02	-5.58420E-01	1.75926E+00	-4.42513E+00
-3.31047E-01	-4.63456E-01	1.75893E+00	-4.40528E+00
-5.30982E-01	-2.25775E-01	1.75863E+00	-4.38546E+00
-5.76039E-01	8.49543E-02	1.75838E+00	-4.36572E+00
-4.49705E-01	3.74892E-01	1.75824E+00	-4.34606E+00
-1.88659E-01	5.55528E-01	1.75829E+00	-4.32663E+00
1.28504E-01	5.71746E-01	1.75834E+00	-4.30754E+00
4.06038E-01	4.19092E-01	1.75828E+00	-4.28870E+00
5.60942E-01	1.44860E-01	1.75809E+00	-4.27003E+00
5.48652E-01	-1.67179E-01	1.75775E+00	-4.25143E+00
3.76172E-01	-4.23265E-01	1.75738E+00	-4.23278E+00
9.87610E-02	-5.48762E-01	1.75713E+00	-4.21414E+00
-1.98237E-01	-5.10450E-01	1.75701E+00	-4.19560E+00
-4.26422E-01	-3.25429E-01	1.75707E+00	-4.17727E+00
-5.21348E-01	-5.41033E-02	1.75715E+00	-4.15929E+00
-4.61123E-01	2.19961E-01	1.75714E+00	-4.14147E+00
-2.71082E-01	4.16286E-01	1.75709E+00	-4.12394E+00
-1.38499E-02	4.81662E-01	1.75676E+00	-4.10650E+00
2.31582E-01	4.04703E-01	1.75639E+00	-4.08895E+00
3.94462E-01	2.16805E-01	1.75612E+00	-4.07142E+00
4.33019E-01	-1.99072E-02	1.75590E+00	-4.05393E+00
3.45022E-01	-2.33220E-01	1.75599E+00	-4.03645E+00
1.65623E-01	-3.63149E-01	1.75634E+00	-4.01956E+00
-4.59115E-02	-3.78842E-01	1.75615E+00	-4.00310E+00
-2.25767E-01	-2.85498E-01	1.75575E+00	-3.98634E+00
-3.24925E-01	-1.19799E-01	1.75552E+00	-3.96956E+00
-3.22434E-01	6.37716E-02	1.75539E+00	-3.95286E+00
-2.29000E-01	2.10681E-01	1.75542E+00	-3.93629E+00
-8.08040E-02	2.82524E-01	1.75553E+00	-3.92009E+00
7.38076E-02	2.66765E-01	1.75534E+00	-3.90416E+00
1.89845E-01	1.77703E-01	1.75498E+00	-3.88803E+00
2.38613E-01	4.93338E-02	1.75483E+00	-3.87186E+00
2.14319E-01	-7.69212E-02	1.75484E+00	-3.85589E+00
1.33065E-01	-1.65322E-01	1.75485E+00	-3.84016E+00
2.54160E-02	-1.95603E-01	1.75478E+00	-3.82462E+00
-7.44286E-02	-1.66987E-01	1.75460E+00	-3.80916E+00
-1.39173E-01	-9.58354E-02	1.75436E+00	-3.79369E+00
-1.55507E-01	-8.48987E-03	1.75421E+00	-3.77821E+00
-1.26018E-01	6.78590E-02	1.75422E+00	-3.76283E+00
-6.61213E-02	1.13275E-01	1.75434E+00	-3.74777E+00
2.41349E-03	1.19829E-01	1.75419E+00	-3.73298E+00
5.88079E-02	9.20234E-02	1.75386E+00	-3.71804E+00
8.91970E-02	4.34893E-02	1.75372E+00	-3.70304E+00
8.95226E-02	-8.51490E-03	1.75367E+00	-3.68818E+00
6.50334E-02	-4.87584E-02	1.75373E+00	-3.67345E+00
2.71134E-02	-6.80912E-02	1.75389E+00	-3.65907E+00
-1.11279E-02	-6.49959E-02	1.75360E+00	-3.64499E+00
-3.89611E-02	-4.45967E-02	1.75311E+00	-3.63048E+00
-5.06642E-02	-1.59070E-02	1.75303E+00	-3.61592E+00
-4.61599E-02	1.15067E-02	1.75304E+00	-3.60161E+00
-2.99016E-02	3.03476E-02	1.75311E+00	-3.58743E+00
-8.68199E-03	3.71695E-02	1.75325E+00	-3.57348E+00
1.07414E-02	3.25143E-02	1.75324E+00	-3.55984E+00
2.34871E-02	1.99110E-02	1.75300E+00	-3.54615E+00
2.74519E-02	4.28006E-03	1.75279E+00	-3.53247E+00
2.32581E-02	-9.66611E-03	1.75249E+00	-3.51878E+00
1.35002E-02	-1.85797E-02	1.75231E+00	-3.50498E+00
1.68121E-03	-2.10205E-02	1.75235E+00	-3.49131E+00
-8.81562E-03	-1.74101E-02	1.75245E+00	-3.47789E+00
-1.54925E-02	-9.57391E-03	1.75247E+00	-3.46466E+00
-1.71432E-02	-8.54000E-05	1.75241E+00	-3.45152E+00
-1.39278E-02	8.41632E-03	1.75229E+00	-3.43845E+00
-7.17008E-03	1.38164E-02	1.75213E+00	-3.42539E+00
1.04501E-03	1.49507E-02	1.75201E+00	-3.41236E+00
8.40643E-03	1.18173E-02	1.75190E+00	-3.39944E+00
1.29452E-02	5.53361E-03	1.75177E+00	-3.38653E+00
1.35402E-02	-1.97123E-03	1.75175E+00	-3.37371E+00
1.02200E-02	-8.48823E-03	1.75170E+00	-3.36104E+00
4.15579E-03	-1.21655E-02	1.75160E+00	-3.34841E+00
-2.69090E-03	-1.20698E-02	1.75158E+00	-3.33582E+00
-8.18954E-03	-8.48125E-03	1.75158E+00	-3.32343E+00
-1.07447E-02	-2.79387E-03	1.75146E+00	-3.31110E+00
-9.83773E-03	2.98068E-03	1.75137E+00	-3.29880E+00
-6.18839E-03	6.94316E-03	1.75118E+00	-3.28660E+00
-1.45290E-03	8.01607E-03	1.75099E+00	-3.27429E+00
2.45570E-03	6.34088E-03	1.75100E+00	-3.26201E+00
4.16801E-03	3.18348E-03	1.75110E+00	-3.24997E+00
3.44988E-03	3.55071E-04	1.75110E+00	-3.23810E+00
1.31312E-03	-6.35627E-04	1.75101E+00	-3.22630E+00
-4.44560E-04	6.55834E-04	1.75085E+00	-3.21452E+00
-1.16175E-04	3.28983E-03	1.75069E+00	-3.20270E+00
2.97684E-03	5.26103E-03	1.75061E+00	-3.19092E+00
7.91601E-03	4.39373E-03	1.75058E+00	-3.17923E+00
1.23076E-02	-5.19065E-04	1.75057E+00	-3.16766E+00
1.31526E-02	-8.82292E-03	1.75051E+00	-3.15618E+00
8.19759E-03	-1.78113E-02	1.75044E+00	-3.14472E+00
-2.76338E-03	-2.34586E-02	1.75041E+00	-3.13332E+00
-1.72157E-02	-2.19172E-02	1.75040E+00	-3.12205E+00
-3.03121E-02	-1.12855E-02	1.75032E+00	-3.11083E+00
-3.63509E-02	7.07133E-03	1.75026E+00	-3.09970E+00
-3.09366E-02	2.82855E-02	1.75007E+00	-3.08861E+00
-1.30576E-02	4.51354E-02	1.74991E+00	-3.07740E+00
1.37725E-02	5.03687E-02	1.74994E+00	-3.06620E+00
4.19263E-02	3.94855E-02	1.75012E+00	-3.05527E+00
6.17436E-02	1.29611E-02	1.75010E+00	-3.04455E+00
6.47155E-02	-2.30084E-02	1.75002E+00	-3.03382E+00
4.67918E-02	-5.77811E-02	1.74985E+00	-3.02313E+00
1.05530E-02	-7.93665E-02	1.74964E+00	-3.01238E+00
-3.46956E-02	-7.84686E-02	1.74957E+00	-3.00154E+00
-7.52225E-02	-5.21255E-02	1.74961E+00	-2.99090E+00
-9.70362E-02	-5.58898E-03	1.74962E+00	-2.98036E+00
-9.06602E-02	4.84697E-02	1.74961E+00	-2.96990E+00
-5.48761E-02	9.33736E-02	1.74959E+00	-2.95952E+00
1.95156E-03	1.13652E-01	1.74950E+00	-2.94921E+00
6.37070E-02	1.00346E-01	1.74940E+00	-2.93892E+00
1.11158E-01	5.46075E-02	1.74927E+00	-2.92864E+00
1.28052E-01	-1.17970E-02	1.74916E+00	-2.91834E+00
1.06708E-01	-7.95001E-02	1.74913E+00	-2.90812E+00
5.11555E-02	-1.27341E-01	1.74913E+00	-2.89794E+00
-2.33781E-02	-1.39103E-01	1.74916E+00	-2.88790E+00
-9.47376E-02	-1.09111E-01	1.74915E+00	-2.87797E+00
-1.40627E-01	-4.46280E-02	1.74904E+00	-2.86806E+00
-1.45790E-01	3.58625E-02	1.74893E+00	-2.85814E+00
-1.07201E-01	1.08126E-01	1.74884E+00	-2.84826E+00
-3.54720E-02	1.49738E-01	1.74877E+00	-2.83835E+00
4.81359E-02	1.47307E-01	1.74880E+00	-2.82854E+00
1.18285E-01	1.00945E-01	1.74882E+00	-2.81885E+00
1.53513E-01	2.44545E-02	1.74880E+00	-2.80925E+00
1.43130E-01	-5.89221E-02	1.74875E+00	-2.79966E+00
9.06465E-02	-1.23861E-01	1.74867E+00	-2.79017E+00
1.26059E-02	-1.51012E-01	1.74852E+00	-2.78062E+00
-6.68050E-02	-1.33089E-01	1.74848E+00	-2.77106E+00
-1.23584E-01	-7.69905E-02	1.74847E+00	-2.76160E+00
-1.41586E-01	-1.22477E-03	1.74849E+00	-2.75223E+00
-1.17399E-01	7.03479E-02	1.74846E+00	-2.74291E+00
