jMRUI Data Textfile
 
Filename: GABA.txt
 
PointsInDataset: 2048
DatasetsInFile: 1
SamplingInterval: 5.00000E-01
ZeroOrderPhase: 0E0
BeginTime: 0E0
TransmitterFrequency: 1.27740E+08
MagneticField: 0E0
TypeOfNucleus: 0E0
NameOfPatient: 
DateOfExperiment: 
Spectrometer: Vespa-Simulation
AdditionalInfo: see 'readme' file for Vespa-Simulation output synopsis
 
  
Signal and FFT 
sig(real)	sig(imag)	fft(real)	fft(imag)
Signal 1 out of 1 in file
4.68884E+00	-7.57123E-02	2.37897E+00	-4.91838E+00
2.65215E+00	-3.69377E+00	2.37842E+00	-4.89834E+00
-1.31568E+00	-4.06450E+00	2.37789E+00	-4.87845E+00
-3.69420E+00	-1.20336E+00	2.37736E+00	-4.85869E+00
-2.73848E+00	2.03789E+00	2.37684E+00	-4.83908E+00
1.24697E-01	2.88623E+00	2.37632E+00	-4.81960E+00
2.03773E+00	1.16774E+00	2.37580E+00	-4.80025E+00
1.57256E+00	-9.51134E-01	2.37529E+00	-4.78102E+00
-1.87679E-01	-1.40404E+00	2.37479E+00	-4.76192E+00
-1.14809E+00	-1.81408E-01	2.37431E+00	-4.74295E+00
-4.40179E-01	1.03433E+00	2.37385E+00	-4.72411E+00
9.13416E-01	8.42826E-01	2.37339E+00	-4.70540E+00
1.32154E+00	-4.90816E-01	2.37292E+00	-4.68683E+00
3.15271E-01	-1.52180E+00	2.37246E+00	-4.66837E+00
-1.11957E+00	-1.20578E+00	2.37200E+00	-4.65003E+00
-1.66892E+00	1.48780E-01	2.37155E+00	-4.63180E+00
-9.36708E-01	1.35705E+00	2.37111E+00	-4.61368E+00
3.78379E-01	1.53174E+00	2.37069E+00	-4.59569E+00
1.28807E+00	7.27506E-01	2.37028E+00	-4.57781E+00
1.32446E+00	-3.63653E-01	2.36987E+00	-4.56006E+00
6.69159E-01	-1.09088E+00	2.36947E+00	-4.54243E+00
-2.20484E-01	-1.19248E+00	2.36906E+00	-4.52490E+00
-9.31676E-01	-7.19179E-01	2.36866E+00	-4.50748E+00
-1.16127E+00	1.03838E-01	2.36827E+00	-4.49017E+00
-7.56316E-01	8.86460E-01	2.36789E+00	-4.47296E+00
1.18966E-01	1.15328E+00	2.36752E+00	-4.45587E+00
9.21574E-01	6.64230E-01	2.36716E+00	-4.43888E+00
1.05341E+00	-2.72264E-01	2.36680E+00	-4.42201E+00
3.99570E-01	-9.32018E-01	2.36644E+00	-4.40525E+00
-4.78744E-01	-7.83518E-01	2.36608E+00	-4.38858E+00
-8.10095E-01	-1.42365E-02	2.36573E+00	-4.37202E+00
-3.48908E-01	6.14076E-01	2.36538E+00	-4.35554E+00
3.72392E-01	5.07045E-01	2.36505E+00	-4.33917E+00
5.80117E-01	-1.61717E-01	2.36472E+00	-4.32290E+00
5.92737E-02	-6.31357E-01	2.36441E+00	-4.30673E+00
-6.16804E-01	-3.51437E-01	2.36409E+00	-4.29067E+00
-6.81515E-01	4.28485E-01	2.36378E+00	-4.27471E+00
1.62140E-02	8.99111E-01	2.36346E+00	-4.25884E+00
8.29864E-01	5.20153E-01	2.36314E+00	-4.24306E+00
9.51531E-01	-4.14227E-01	2.36283E+00	-4.22737E+00
2.16973E-01	-1.04838E+00	2.36253E+00	-4.21176E+00
-7.28604E-01	-7.92944E-01	2.36224E+00	-4.19625E+00
-1.05078E+00	1.20734E-01	2.36196E+00	-4.18085E+00
-5.01701E-01	8.83241E-01	2.36167E+00	-4.16554E+00
3.92403E-01	8.70632E-01	2.36138E+00	-4.15031E+00
8.61461E-01	1.78898E-01	2.36108E+00	-4.13517E+00
5.85803E-01	-5.37969E-01	2.36078E+00	-4.12010E+00
-8.98452E-02	-7.00807E-01	2.36049E+00	-4.10510E+00
-5.49333E-01	-2.83766E-01	2.36022E+00	-4.09018E+00
-4.68502E-01	2.58465E-01	2.35998E+00	-4.07535E+00
-3.13395E-02	4.59632E-01	2.35975E+00	-4.06062E+00
3.23761E-01	2.31752E-01	2.35951E+00	-4.04599E+00
3.19855E-01	-1.40145E-01	2.35928E+00	-4.03145E+00
3.60753E-02	-3.11956E-01	2.35903E+00	-4.01699E+00
-2.32227E-01	-1.75542E-01	2.35877E+00	-4.00262E+00
-2.58362E-01	1.01657E-01	2.35851E+00	-3.98831E+00
-5.31521E-02	2.65207E-01	2.35825E+00	-3.97407E+00
1.86789E-01	1.90688E-01	2.35799E+00	-3.95990E+00
2.61911E-01	-4.09818E-02	2.35775E+00	-3.94579E+00
1.22062E-01	-2.33893E-01	2.35752E+00	-3.93176E+00
-1.12588E-01	-2.37111E-01	2.35731E+00	-3.91780E+00
-2.55132E-01	-5.37744E-02	2.35712E+00	-3.90393E+00
-1.95606E-01	1.68911E-01	2.35693E+00	-3.89015E+00
1.67567E-02	2.55023E-01	2.35674E+00	-3.87647E+00
2.11734E-01	1.37025E-01	2.35654E+00	-3.86286E+00
2.32172E-01	-8.85951E-02	2.35633E+00	-3.84933E+00
6.26535E-02	-2.36518E-01	2.35611E+00	-3.83586E+00
-1.54447E-01	-1.84920E-01	2.35587E+00	-3.82245E+00
-2.36534E-01	2.02771E-02	2.35565E+00	-3.80909E+00
-1.16625E-01	2.02933E-01	2.35544E+00	-3.79579E+00
9.88285E-02	2.08465E-01	2.35525E+00	-3.78256E+00
2.23879E-01	3.74139E-02	2.35508E+00	-3.76940E+00
1.56031E-01	-1.58518E-01	2.35491E+00	-3.75633E+00
-3.80870E-02	-2.13168E-01	2.35474E+00	-3.74333E+00
-1.88593E-01	-8.98387E-02	2.35456E+00	-3.73041E+00
-1.74749E-01	9.55828E-02	2.35438E+00	-3.71755E+00
-2.39749E-02	1.85715E-01	2.35419E+00	-3.70475E+00
1.25706E-01	1.19113E-01	2.35401E+00	-3.69200E+00
1.54543E-01	-2.87319E-02	2.35384E+00	-3.67932E+00
5.94001E-02	-1.26488E-01	2.35368E+00	-3.66671E+00
-6.03977E-02	-1.05361E-01	2.35351E+00	-3.65416E+00
-1.02861E-01	-7.20719E-03	2.35335E+00	-3.64168E+00
-5.02671E-02	6.95214E-02	2.35319E+00	-3.62926E+00
3.02619E-02	6.40555E-02	2.35303E+00	-3.61690E+00
5.99849E-02	-3.13999E-04	2.35287E+00	-3.60460E+00
2.02815E-02	-5.08997E-02	2.35272E+00	-3.59236E+00
-3.96647E-02	-3.86951E-02	2.35257E+00	-3.58018E+00
-5.66649E-02	1.99067E-02	2.35242E+00	-3.56806E+00
-1.30491E-02	6.50800E-02	2.35228E+00	-3.55600E+00
5.09419E-02	5.17564E-02	2.35213E+00	-3.54400E+00
7.70261E-02	-1.08552E-02	2.35199E+00	-3.53206E+00
4.09000E-02	-7.03279E-02	2.35185E+00	-3.52018E+00
-2.89900E-02	-7.78859E-02	2.35171E+00	-3.50836E+00
-7.80482E-02	-2.82380E-02	2.35157E+00	-3.49658E+00
-7.08887E-02	3.94355E-02	2.35143E+00	-3.48487E+00
-1.68506E-02	7.57830E-02	2.35130E+00	-3.47321E+00
4.20466E-02	5.93953E-02	2.35118E+00	-3.46160E+00
6.62489E-02	8.61391E-03	2.35105E+00	-3.45006E+00
4.64503E-02	-3.80468E-02	2.35092E+00	-3.43857E+00
4.22933E-03	-5.26346E-02	2.35079E+00	-3.42713E+00
-2.96254E-02	-3.44262E-02	2.35066E+00	-3.41574E+00
-3.80639E-02	-3.30063E-03	2.35053E+00	-3.40440E+00
-2.47576E-02	1.94283E-02	2.35041E+00	-3.39311E+00
-4.58984E-03	2.50576E-02	2.35030E+00	-3.38188E+00
9.97337E-03	1.78252E-02	2.35019E+00	-3.37070E+00
1.51177E-02	6.45296E-03	2.35008E+00	-3.35958E+00
1.31284E-02	-3.06113E-03	2.34997E+00	-3.34851E+00
7.42206E-03	-8.59226E-03	2.34986E+00	-3.33749E+00
5.93907E-04	-9.71781E-03	2.34974E+00	-3.32651E+00
-4.89787E-03	-6.71595E-03	2.34963E+00	-3.31558E+00
-6.74402E-03	-1.37773E-03	2.34952E+00	-3.30470E+00
-4.47156E-03	3.01205E-03	2.34942E+00	-3.29387E+00
-4.21872E-04	3.87577E-03	2.34932E+00	-3.28309E+00
2.00709E-03	1.60415E-03	2.34923E+00	-3.27236E+00
1.40901E-03	-9.41105E-04	2.34913E+00	-3.26168E+00
-6.29128E-04	-1.39248E-03	2.34903E+00	-3.25105E+00
-1.66821E-03	-4.24670E-05	2.34894E+00	-3.24046E+00
-1.13778E-03	1.13920E-03	2.34884E+00	-3.22992E+00
-4.65846E-04	1.23752E-03	2.34874E+00	-3.21942E+00
-6.45280E-04	1.42940E-03	2.34865E+00	-3.20897E+00
-4.23571E-04	2.99198E-03	2.34857E+00	-3.19856E+00
2.34774E-03	4.72117E-03	2.34848E+00	-3.18821E+00
7.41934E-03	3.19594E-03	2.34840E+00	-3.17789E+00
1.07077E-02	-3.67780E-03	2.34831E+00	-3.16763E+00
7.00511E-03	-1.31692E-02	2.34822E+00	-3.15741E+00
-4.96843E-03	-1.81236E-02	2.34814E+00	-3.14723E+00
-1.95789E-02	-1.18608E-02	2.34806E+00	-3.13709E+00
-2.65361E-02	5.79767E-03	2.34797E+00	-3.12699E+00
-1.76701E-02	2.61369E-02	2.34789E+00	-3.11694E+00
6.04790E-03	3.54702E-02	2.34782E+00	-3.10693E+00
3.24815E-02	2.39530E-02	2.34774E+00	-3.09697E+00
4.41319E-02	-5.98932E-03	2.34766E+00	-3.08705E+00
2.96878E-02	-3.81384E-02	2.34758E+00	-3.07716E+00
-6.01696E-03	-5.11646E-02	2.34750E+00	-3.06732E+00
-4.21400E-02	-3.35122E-02	2.34743E+00	-3.05751E+00
-5.46937E-02	6.15821E-03	2.34735E+00	-3.04775E+00
-3.42745E-02	4.28399E-02	2.34728E+00	-3.03802E+00
5.59691E-03	5.28123E-02	2.34722E+00	-3.02834E+00
3.81666E-02	3.17512E-02	2.34715E+00	-3.01869E+00
4.44086E-02	-2.59188E-03	2.34709E+00	-3.00910E+00
2.71239E-02	-2.63928E-02	2.34702E+00	-2.99954E+00
5.03298E-03	-2.99917E-02	2.34695E+00	-2.99001E+00
-7.14935E-03	-2.28773E-02	2.34688E+00	-2.98053E+00
-1.20377E-02	-1.88315E-02	2.34681E+00	-2.97108E+00
-2.19290E-02	-1.77638E-02	2.34674E+00	-2.96166E+00
-3.85679E-02	-5.48983E-03	2.34668E+00	-2.95228E+00
-4.43112E-02	2.62735E-02	2.34662E+00	-2.94293E+00
-1.84307E-02	6.15264E-02	2.34657E+00	-2.93363E+00
3.57024E-02	6.71614E-02	2.34652E+00	-2.92436E+00
8.28043E-02	2.41062E-02	2.34647E+00	-2.91514E+00
8.14113E-02	-4.72926E-02	2.34642E+00	-2.90596E+00
2.26184E-02	-9.66975E-02	2.34636E+00	-2.89682E+00
-5.60893E-02	-8.44526E-02	2.34630E+00	-2.88770E+00
-9.87501E-02	-1.70509E-02	2.34623E+00	-2.87862E+00
-7.70928E-02	5.69116E-02	2.34618E+00	-2.86956E+00
-1.23651E-02	8.75885E-02	2.34612E+00	-2.86054E+00
4.65207E-02	6.33394E-02	2.34607E+00	-2.85156E+00
6.56694E-02	1.32466E-02	2.34602E+00	-2.84261E+00
4.87323E-02	-2.52503E-02	2.34598E+00	-2.83369E+00
2.18993E-02	-3.84327E-02	2.34594E+00	-2.82482E+00
2.82856E-03	-3.79185E-02	2.34589E+00	-2.81597E+00
-1.21167E-02	-3.68184E-02	2.34585E+00	-2.80717E+00
-3.25643E-02	-3.14031E-02	2.34581E+00	-2.79839E+00
-5.32909E-02	-8.83649E-03	2.34576E+00	-2.78965E+00
-5.45334E-02	3.06733E-02	2.34572E+00	-2.78094E+00
-2.35379E-02	6.54737E-02	2.34568E+00	-2.77227E+00
2.77424E-02	6.91530E-02	2.34563E+00	-2.76362E+00
6.91863E-02	3.46509E-02	2.34559E+00	-2.75501E+00
7.62246E-02	-1.93388E-02	2.34555E+00	-2.74642E+00
4.64969E-02	-6.40394E-02	2.34551E+00	-2.73787E+00
-3.80818E-03	-7.98788E-02	2.34548E+00	-2.72935E+00
-5.37261E-02	-6.21794E-02	2.34544E+00	-2.72087E+00
-8.48097E-02	-1.62408E-02	2.34540E+00	-2.71241E+00
-8.11129E-02	4.41817E-02	2.34536E+00	-2.70399E+00
-3.46599E-02	9.31840E-02	2.34533E+00	-2.69559E+00
4.03776E-02	9.83870E-02	2.34529E+00	-2.68722E+00
1.02680E-01	4.45132E-02	2.34526E+00	-2.67889E+00
1.06546E-01	-4.32526E-02	2.34523E+00	-2.67058E+00
4.17238E-02	-1.06823E-01	2.34520E+00	-2.66230E+00
-4.84968E-02	-9.91174E-02	2.34517E+00	-2.65406E+00
-9.77708E-02	-2.77260E-02	2.34514E+00	-2.64585E+00
-7.43027E-02	4.79953E-02	2.34510E+00	-2.63767E+00
-9.69883E-03	7.03877E-02	2.34507E+00	-2.62951E+00
3.35672E-02	3.69301E-02	2.34503E+00	-2.62137E+00
2.56851E-02	-2.09481E-03	2.34500E+00	-2.61326E+00
-2.51390E-03	-1.30488E-03	2.34498E+00	-2.60518E+00
1.19746E-03	2.81953E-02	2.34496E+00	-2.59712E+00
4.54889E-02	3.16950E-02	2.34495E+00	-2.58911E+00
7.82311E-02	-2.25923E-02	2.34494E+00	-2.58113E+00
4.15193E-02	-9.64427E-02	2.34491E+00	-2.57318E+00
