jMRUI Data Textfile
 
Filename: Glc.txt
 
PointsInDataset: 2048
DatasetsInFile: 1
SamplingInterval: 5.00000E-01
ZeroOrderPhase: 0E0
BeginTime: 0E0
TransmitterFrequency: 1.27740E+08
MagneticField: 0E0
TypeOfNucleus: 0E0
NameOfPatient: 
DateOfExperiment: 
Spectrometer: Vespa-Simulation
AdditionalInfo: see 'readme' file for Vespa-Simulation output synopsis
 
  
Signal and FFT 
sig(real)	sig(imag)	fft(real)	fft(imag)
Signal 1 out of 1 in file
6.68735E+00	-7.87732E-03	2.26019E+01	-3.01104E+01
5.94726E+00	-2.62880E+00	1.99959E+01	-3.03547E+01
4.11603E+00	-4.57159E+00	1.77432E+01	-3.01513E+01
1.66510E+00	-5.42259E+00	1.58411E+01	-2.96811E+01
-8.07201E-01	-5.05417E+00	1.42503E+01	-2.90645E+01
-2.73360E+00	-3.64195E+00	1.29221E+01	-2.83777E+01
-3.71915E+00	-1.60192E+00	1.18099E+01	-2.76671E+01
-3.62878E+00	5.31216E-01	1.08735E+01	-2.69596E+01
-2.60122E+00	2.24827E+00	1.00806E+01	-2.62700E+01
-9.90481E-01	3.19220E+00	9.40514E+00	-2.56069E+01
7.44114E-01	3.23464E+00	8.82637E+00	-2.49747E+01
2.16562E+00	2.48580E+00	8.32709E+00	-2.43751E+01
2.96937E+00	1.24083E+00	7.89321E+00	-2.38082E+01
3.04701E+00	-1.17283E-01	7.51344E+00	-2.32725E+01
2.49190E+00	-1.22798E+00	7.17891E+00	-2.27661E+01
1.55022E+00	-1.84549E+00	6.88258E+00	-2.22867E+01
5.36471E-01	-1.89027E+00	6.61881E+00	-2.18323E+01
-2.59693E-01	-1.44965E+00	6.38306E+00	-2.14008E+01
-6.49299E-01	-7.33345E-01	6.17171E+00	-2.09903E+01
-5.83647E-01	-7.16452E-04	5.98194E+00	-2.05990E+01
-1.50958E-01	5.17095E-01	5.81149E+00	-2.02258E+01
4.64024E-01	6.78380E-01	5.65848E+00	-1.98695E+01
1.04234E+00	4.60646E-01	5.52114E+00	-1.95294E+01
1.39556E+00	-4.54780E-02	5.39776E+00	-1.92050E+01
1.41515E+00	-6.72444E-01	5.28657E+00	-1.88958E+01
1.09511E+00	-1.22889E+00	5.18569E+00	-1.86012E+01
5.24876E-01	-1.55360E+00	5.09332E+00	-1.83202E+01
-1.42188E-01	-1.55607E+00	5.00801E+00	-1.80515E+01
-7.33626E-01	-1.23472E+00	4.92886E+00	-1.77938E+01
-1.10322E+00	-6.70809E-01	4.85543E+00	-1.75457E+01
-1.16541E+00	-2.38024E-03	4.78761E+00	-1.73066E+01
-9.11703E-01	6.12990E-01	4.72534E+00	-1.70761E+01
-4.07419E-01	1.03655E+00	4.66832E+00	-1.68540E+01
2.28186E-01	1.17880E+00	4.61586E+00	-1.66405E+01
8.52083E-01	1.01615E+00	4.56713E+00	-1.64351E+01
1.32995E+00	5.91881E-01	4.52146E+00	-1.62372E+01
1.56424E+00	2.74634E-03	4.47840E+00	-1.60462E+01
1.51235E+00	-6.24225E-01	4.43770E+00	-1.58615E+01
1.19241E+00	-1.15937E+00	4.39917E+00	-1.56827E+01
6.76640E-01	-1.49699E+00	4.36270E+00	-1.55093E+01
7.45052E-02	-1.57551E+00	4.32816E+00	-1.53410E+01
-4.90870E-01	-1.38840E+00	4.29544E+00	-1.51776E+01
-9.07962E-01	-9.83664E-01	4.26443E+00	-1.50187E+01
-1.09948E+00	-4.52644E-01	4.23503E+00	-1.48642E+01
-1.03752E+00	8.98150E-02	4.20714E+00	-1.47138E+01
-7.48615E-01	5.30006E-01	4.18065E+00	-1.45674E+01
-3.07212E-01	7.79564E-01	4.15549E+00	-1.44247E+01
1.81189E-01	7.94472E-01	4.13157E+00	-1.42856E+01
6.03848E-01	5.84231E-01	4.10881E+00	-1.41499E+01
8.66346E-01	2.09107E-01	4.08714E+00	-1.40176E+01
9.14190E-01	-2.34435E-01	4.06648E+00	-1.38883E+01
7.45036E-01	-6.36783E-01	4.04678E+00	-1.37621E+01
4.08512E-01	-9.01612E-01	4.02797E+00	-1.36388E+01
-6.58577E-03	-9.68957E-01	4.01001E+00	-1.35183E+01
-3.94870E-01	-8.29410E-01	3.99284E+00	-1.34004E+01
-6.60851E-01	-5.25523E-01	3.97641E+00	-1.32851E+01
-7.42914E-01	-1.40045E-01	3.96067E+00	-1.31723E+01
-6.28261E-01	2.25966E-01	3.94560E+00	-1.30618E+01
-3.55176E-01	4.79602E-01	3.93114E+00	-1.29536E+01
-1.88689E-03	5.59977E-01	3.91727E+00	-1.28476E+01
3.34781E-01	4.53352E-01	3.90396E+00	-1.27437E+01
5.65333E-01	1.95571E-01	3.89117E+00	-1.26419E+01
6.30958E-01	-1.38668E-01	3.87888E+00	-1.25420E+01
5.18280E-01	-4.56657E-01	3.86706E+00	-1.24441E+01
2.61614E-01	-6.72699E-01	3.85569E+00	-1.23479E+01
-6.75087E-02	-7.30670E-01	3.84473E+00	-1.22536E+01
-3.80532E-01	-6.18004E-01	3.83417E+00	-1.21610E+01
-5.95794E-01	-3.67625E-01	3.82399E+00	-1.20700E+01
-6.59999E-01	-4.77248E-02	3.81418E+00	-1.19806E+01
-5.61316E-01	2.57487E-01	3.80470E+00	-1.18928E+01
-3.30956E-01	4.70658E-01	3.79556E+00	-1.18065E+01
-3.33294E-02	5.41297E-01	3.78672E+00	-1.17217E+01
2.52199E-01	4.58022E-01	3.77818E+00	-1.16382E+01
4.52771E-01	2.49856E-01	3.76992E+00	-1.15562E+01
5.20695E-01	-2.31083E-02	3.76193E+00	-1.14755E+01
4.44761E-01	-2.86787E-01	3.75419E+00	-1.13961E+01
2.51411E-01	-4.72995E-01	3.74671E+00	-1.13179E+01
-4.00552E-03	-5.36842E-01	3.73946E+00	-1.12409E+01
-2.52936E-01	-4.67074E-01	3.73245E+00	-1.11652E+01
-4.31996E-01	-2.87253E-01	3.72564E+00	-1.10906E+01
-4.98955E-01	-4.78363E-02	3.71904E+00	-1.10171E+01
-4.42398E-01	1.88274E-01	3.71263E+00	-1.09448E+01
-2.82882E-01	3.62420E-01	3.70640E+00	-1.08735E+01
-6.59111E-02	4.34939E-01	3.70035E+00	-1.08032E+01
1.51136E-01	3.94142E-01	3.69448E+00	-1.07339E+01
3.14194E-01	2.57612E-01	3.68878E+00	-1.06656E+01
3.86049E-01	6.60427E-02	3.68325E+00	-1.05983E+01
3.54746E-01	-1.28427E-01	3.67788E+00	-1.05319E+01
2.35094E-01	-2.76113E-01	3.67266E+00	-1.04664E+01
6.33422E-02	-3.42121E-01	3.66759E+00	-1.04018E+01
-1.13234E-01	-3.14325E-01	3.66264E+00	-1.03381E+01
-2.48900E-01	-2.05093E-01	3.65781E+00	-1.02752E+01
-3.10943E-01	-4.67347E-02	3.65310E+00	-1.02132E+01
-2.87153E-01	1.17743E-01	3.64850E+00	-1.01520E+01
-1.87816E-01	2.46092E-01	3.64403E+00	-1.00915E+01
-4.18891E-02	3.07473E-01	3.63967E+00	-1.00318E+01
1.11244E-01	2.89617E-01	3.63542E+00	-9.97288E+00
2.32254E-01	2.01030E-01	3.63128E+00	-9.91468E+00
2.91789E-01	6.78620E-02	3.62725E+00	-9.85719E+00
2.77438E-01	-7.35285E-02	3.62331E+00	-9.80041E+00
1.96102E-01	-1.86141E-01	3.61947E+00	-9.74432E+00
7.14765E-02	-2.41700E-01	3.61573E+00	-9.68890E+00
-6.25734E-02	-2.27413E-01	3.61208E+00	-9.63414E+00
-1.70907E-01	-1.48576E-01	3.60853E+00	-9.58004E+00
-2.25899E-01	-2.65893E-02	3.60505E+00	-9.52658E+00
-2.14065E-01	1.06937E-01	3.60164E+00	-9.47376E+00
-1.38896E-01	2.18403E-01	3.59830E+00	-9.42154E+00
-1.93934E-02	2.80537E-01	3.59502E+00	-9.36991E+00
1.15147E-01	2.78876E-01	3.59180E+00	-9.31885E+00
2.32658E-01	2.14820E-01	3.58865E+00	-9.26834E+00
3.06210E-01	1.04656E-01	3.58557E+00	-9.21839E+00
3.20258E-01	-2.49581E-02	3.58257E+00	-9.16897E+00
2.73903E-01	-1.43856E-01	3.57965E+00	-9.12009E+00
1.80423E-01	-2.25730E-01	3.57680E+00	-9.07173E+00
6.33737E-02	-2.54220E-01	3.57402E+00	-9.02390E+00
-4.95290E-02	-2.26225E-01	3.57131E+00	-8.97660E+00
-1.33231E-01	-1.51894E-01	3.56866E+00	-8.92981E+00
-1.71125E-01	-5.13821E-02	3.56604E+00	-8.88353E+00
-1.58400E-01	5.05879E-02	3.56346E+00	-8.83773E+00
-1.02373E-01	1.30935E-01	3.56092E+00	-8.79239E+00
-1.98326E-02	1.73618E-01	3.55841E+00	-8.74751E+00
6.77658E-02	1.72956E-01	3.55595E+00	-8.70306E+00
1.39876E-01	1.34158E-01	3.55354E+00	-8.65905E+00
1.81867E-01	7.11414E-02	3.55119E+00	-8.61547E+00
1.88181E-01	2.31446E-03	3.54890E+00	-8.57231E+00
1.62996E-01	-5.45150E-02	3.54666E+00	-8.52959E+00
1.18336E-01	-8.66989E-02	3.54446E+00	-8.48729E+00
7.02762E-02	-8.97417E-02	3.54231E+00	-8.44541E+00
3.42753E-02	-6.79617E-02	3.54019E+00	-8.40393E+00
2.08969E-02	-3.27729E-02	3.53811E+00	-8.36285E+00
3.30022E-02	8.85312E-04	3.53606E+00	-8.32215E+00
6.51477E-02	1.89890E-02	3.53405E+00	-8.28184E+00
1.05255E-01	1.25461E-02	3.53208E+00	-8.24191E+00
1.38131E-01	-1.96943E-02	3.53014E+00	-8.20235E+00
1.49883E-01	-7.06630E-02	3.52823E+00	-8.16315E+00
1.32053E-01	-1.26694E-01	3.52634E+00	-8.12431E+00
8.43769E-02	-1.71123E-01	3.52448E+00	-8.08582E+00
1.53937E-02	-1.88848E-01	3.52265E+00	-8.04767E+00
-5.93564E-02	-1.70667E-01	3.52085E+00	-8.00984E+00
-1.21023E-01	-1.16218E-01	3.51910E+00	-7.97235E+00
-1.52295E-01	-3.47291E-02	3.51738E+00	-7.93518E+00
-1.42053E-01	5.67313E-02	3.51570E+00	-7.89834E+00
-8.86427E-02	1.37140E-01	3.51405E+00	-7.86183E+00
-8.66870E-04	1.86607E-01	3.51244E+00	-7.82565E+00
1.03641E-01	1.91405E-01	3.51085E+00	-7.78978E+00
2.02398E-01	1.47618E-01	3.50928E+00	-7.75423E+00
2.73294E-01	6.24700E-02	3.50773E+00	-7.71898E+00
2.99974E-01	-4.71030E-02	3.50620E+00	-7.68402E+00
2.75846E-01	-1.58316E-01	3.50469E+00	-7.64936E+00
2.05735E-01	-2.47894E-01	3.50320E+00	-7.61498E+00
1.04728E-01	-2.97582E-01	3.50173E+00	-7.58089E+00
-5.47968E-03	-2.98388E-01	3.50028E+00	-7.54707E+00
-1.01908E-01	-2.52508E-01	3.49886E+00	-7.51352E+00
-1.65663E-01	-1.72429E-01	3.49746E+00	-7.48023E+00
-1.86294E-01	-7.75424E-02	3.49608E+00	-7.44721E+00
-1.63802E-01	1.08515E-02	3.49474E+00	-7.41445E+00
-1.07960E-01	7.47713E-02	3.49343E+00	-7.38196E+00
-3.51986E-02	1.03655E-01	3.49215E+00	-7.34973E+00
3.59975E-02	9.63033E-02	3.49089E+00	-7.31777E+00
8.98958E-02	6.02719E-02	3.48964E+00	-7.28607E+00
1.17230E-01	8.99389E-03	3.48841E+00	-7.25464E+00
1.16834E-01	-4.23777E-02	3.48718E+00	-7.22345E+00
9.49611E-02	-8.12442E-02	3.48594E+00	-7.19249E+00
6.25959E-02	-1.00704E-01	3.48472E+00	-7.16176E+00
3.16801E-02	-1.00773E-01	3.48351E+00	-7.13125E+00
1.14361E-02	-8.74641E-02	3.48233E+00	-7.10096E+00
5.85479E-03	-7.01754E-02	3.48117E+00	-7.07089E+00
1.29938E-02	-5.82721E-02	3.48004E+00	-7.04104E+00
2.62161E-02	-5.79675E-02	3.47893E+00	-7.01142E+00
3.67943E-02	-7.04291E-02	3.47784E+00	-6.98202E+00
3.70424E-02	-9.16211E-02	3.47678E+00	-6.95284E+00
2.29511E-02	-1.13831E-01	3.47573E+00	-6.92388E+00
-4.46397E-03	-1.28316E-01	3.47470E+00	-6.89514E+00
-3.94500E-02	-1.28204E-01	3.47368E+00	-6.86663E+00
-7.33165E-02	-1.10714E-01	3.47266E+00	-6.83832E+00
-9.70351E-02	-7.80867E-02	3.47164E+00	-6.81021E+00
-1.03940E-01	-3.69646E-02	3.47063E+00	-6.78230E+00
-9.16239E-02	3.49713E-03	3.46963E+00	-6.75457E+00
-6.25545E-02	3.41783E-02	3.46865E+00	-6.72703E+00
-2.32929E-02	4.84176E-02	3.46768E+00	-6.69968E+00
1.73623E-02	4.36291E-02	3.46674E+00	-6.67252E+00
5.07049E-02	2.17196E-02	3.46582E+00	-6.64555E+00
7.02433E-02	-1.17187E-02	3.46491E+00	-6.61876E+00
7.30279E-02	-4.90664E-02	3.46402E+00	-6.59217E+00
5.99521E-02	-8.26732E-02	3.46314E+00	-6.56577E+00
3.50488E-02	-1.06593E-01	3.46227E+00	-6.53955E+00
4.13100E-03	-1.17641E-01	3.46141E+00	-6.51352E+00
-2.67593E-02	-1.15604E-01	3.46055E+00	-6.48767E+00
-5.26447E-02	-1.02717E-01	3.45970E+00	-6.46198E+00
-7.03957E-02	-8.26819E-02	3.45885E+00	-6.43647E+00
