jMRUI Data Textfile
 
Filename: mI.txt
 
PointsInDataset: 2048
DatasetsInFile: 1
SamplingInterval: 5.00000E-01
ZeroOrderPhase: 0E0
BeginTime: 0E0
TransmitterFrequency: 1.27740E+08
MagneticField: 0E0
TypeOfNucleus: 0E0
NameOfPatient: 
DateOfExperiment: 
Spectrometer: Vespa-Simulation
AdditionalInfo: see 'readme' file for Vespa-Simulation output synopsis
 
  
Signal and FFT 
sig(real)	sig(imag)	fft(real)	fft(imag)
Signal 1 out of 1 in file
5.88055E+00	-4.49626E-03	3.45890E+00	-1.39253E+01
5.22037E+00	-2.47109E+00	3.44978E+00	-1.38124E+01
3.56384E+00	-4.34846E+00	3.44091E+00	-1.37014E+01
1.30525E+00	-5.26522E+00	3.43230E+00	-1.35923E+01
-1.04420E+00	-5.08181E+00	3.42392E+00	-1.34849E+01
-2.98144E+00	-3.91222E+00	3.41577E+00	-1.33793E+01
-4.12840E+00	-2.08312E+00	3.40784E+00	-1.32753E+01
-4.31182E+00	-4.40279E-02	3.40013E+00	-1.31730E+01
-3.58847E+00	1.74618E+00	3.39263E+00	-1.30723E+01
-2.21322E+00	2.92650E+00	3.38532E+00	-1.29732E+01
-5.62241E-01	3.30878E+00	3.37821E+00	-1.28756E+01
9.65736E-01	2.90459E+00	3.37127E+00	-1.27795E+01
2.04396E+00	1.90191E+00	3.36452E+00	-1.26848E+01
2.48507E+00	6.02460E-01	3.35793E+00	-1.25916E+01
2.26798E+00	-6.60784E-01	3.35151E+00	-1.24997E+01
1.52249E+00	-1.60337E+00	3.34524E+00	-1.24092E+01
4.80700E-01	-2.04763E+00	3.33913E+00	-1.23200E+01
-5.88444E-01	-1.94829E+00	3.33317E+00	-1.22321E+01
-1.44359E+00	-1.38425E+00	3.32735E+00	-1.21454E+01
-1.91922E+00	-5.23664E-01	3.32167E+00	-1.20600E+01
-1.94926E+00	4.24738E-01	3.31612E+00	-1.19757E+01
-1.56530E+00	1.26062E+00	3.31071E+00	-1.18926E+01
-8.74796E-01	1.83013E+00	3.30543E+00	-1.18107E+01
-2.84968E-02	2.04719E+00	3.30027E+00	-1.17299E+01
8.13523E-01	1.89742E+00	3.29523E+00	-1.16502E+01
1.50992E+00	1.42864E+00	3.29030E+00	-1.15716E+01
1.95666E+00	7.33443E-01	3.28548E+00	-1.14940E+01
2.09597E+00	-7.04626E-02	3.28076E+00	-1.14174E+01
1.91777E+00	-8.58548E-01	3.27614E+00	-1.13419E+01
1.45622E+00	-1.51492E+00	3.27161E+00	-1.12673E+01
7.83242E-01	-1.94514E+00	3.26718E+00	-1.11937E+01
-3.47865E-04	-2.08697E+00	3.26283E+00	-1.11211E+01
-7.76730E-01	-1.91902E+00	3.25857E+00	-1.10493E+01
-1.42625E+00	-1.46613E+00	3.25440E+00	-1.09785E+01
-1.84555E+00	-7.99024E-01	3.25031E+00	-1.09085E+01
-1.96596E+00	-2.66349E-02	3.24632E+00	-1.08394E+01
-1.76864E+00	7.20263E-01	3.24241E+00	-1.07712E+01
-1.29192E+00	1.31195E+00	3.23858E+00	-1.07037E+01
-6.27599E-01	1.64536E+00	3.23484E+00	-1.06371E+01
9.50760E-02	1.66679E+00	3.23118E+00	-1.05713E+01
7.34942E-01	1.38521E+00	3.22759E+00	-1.05063E+01
1.16933E+00	8.72251E-01	3.22407E+00	-1.04421E+01
1.32146E+00	2.47526E-01	3.22061E+00	-1.03786E+01
1.17826E+00	-3.48097E-01	3.21721E+00	-1.03159E+01
7.93293E-01	-7.84822E-01	3.21387E+00	-1.02539E+01
2.73618E-01	-9.74299E-01	3.21060E+00	-1.01926E+01
-2.46403E-01	-8.89860E-01	3.20739E+00	-1.01320E+01
-6.38033E-01	-5.71691E-01	3.20425E+00	-1.00721E+01
-8.09247E-01	-1.15345E-01	3.20116E+00	-1.00129E+01
-7.26239E-01	3.53179E-01	3.19814E+00	-9.95433E+00
-4.19985E-01	7.09490E-01	3.19518E+00	-9.89642E+00
2.35125E-02	8.61443E-01	3.19227E+00	-9.83916E+00
4.86410E-01	7.70875E-01	3.18941E+00	-9.78253E+00
8.49160E-01	4.61081E-01	3.18659E+00	-9.72651E+00
1.01997E+00	8.76481E-03	3.18383E+00	-9.67110E+00
9.55980E-01	-4.76705E-01	3.18112E+00	-9.61629E+00
6.71483E-01	-8.81128E-01	3.17846E+00	-9.56206E+00
2.31857E-01	-1.11279E+00	3.17585E+00	-9.50841E+00
-2.64491E-01	-1.12290E+00	3.17328E+00	-9.45533E+00
-7.10776E-01	-9.14332E-01	3.17076E+00	-9.40282E+00
-1.01667E+00	-5.37730E-01	3.16828E+00	-9.35085E+00
-1.12750E+00	-7.66672E-02	3.16583E+00	-9.29942E+00
-1.03343E+00	3.73339E-01	3.16343E+00	-9.24851E+00
-7.67815E-01	7.26774E-01	3.16107E+00	-9.19813E+00
-3.95891E-01	9.25474E-01	3.15875E+00	-9.14825E+00
2.28760E-03	9.48206E-01	3.15648E+00	-9.09889E+00
3.50369E-01	8.11026E-01	3.15424E+00	-9.05002E+00
5.90947E-01	5.59510E-01	3.15204E+00	-9.00164E+00
6.95046E-01	2.55737E-01	3.14987E+00	-8.95375E+00
6.64243E-01	-3.64928E-02	3.14773E+00	-8.90632E+00
5.26162E-01	-2.64813E-01	3.14563E+00	-8.85937E+00
3.25270E-01	-3.97049E-01	3.14357E+00	-8.81287E+00
1.11659E-01	-4.24776E-01	3.14154E+00	-8.76682E+00
-6.97019E-02	-3.61567E-01	3.13954E+00	-8.72122E+00
-1.87004E-01	-2.37184E-01	3.13758E+00	-8.67606E+00
-2.26052E-01	-8.95532E-02	3.13564E+00	-8.63134E+00
-1.90723E-01	4.36779E-02	3.13372E+00	-8.58704E+00
-1.00042E-01	1.32444E-01	3.13183E+00	-8.54315E+00
1.71364E-02	1.59237E-01	3.12996E+00	-8.49967E+00
1.28622E-01	1.21361E-01	3.12813E+00	-8.45659E+00
2.05379E-01	3.03387E-02	3.12632E+00	-8.41390E+00
2.26999E-01	-9.11696E-02	3.12455E+00	-8.37160E+00
1.85321E-01	-2.14193E-01	3.12282E+00	-8.32970E+00
8.57800E-02	-3.09280E-01	3.12111E+00	-8.28818E+00
-5.37882E-02	-3.52309E-01	3.11942E+00	-8.24704E+00
-2.06559E-01	-3.29266E-01	3.11775E+00	-8.20628E+00
-3.41925E-01	-2.39204E-01	3.11611E+00	-8.16588E+00
-4.31488E-01	-9.47358E-02	3.11448E+00	-8.12584E+00
-4.54802E-01	8.01607E-02	3.11289E+00	-8.08614E+00
-4.03633E-01	2.54558E-01	3.11132E+00	-8.04680E+00
-2.83941E-01	3.96606E-01	3.10977E+00	-8.00780E+00
-1.15011E-01	4.79843E-01	3.10825E+00	-7.96915E+00
7.42185E-02	4.88573E-01	3.10675E+00	-7.93084E+00
2.50743E-01	4.21052E-01	3.10527E+00	-7.89286E+00
3.84077E-01	2.89901E-01	3.10381E+00	-7.85520E+00
4.52309E-01	1.19463E-01	3.10237E+00	-7.81788E+00
4.46273E-01	-5.91524E-02	3.10094E+00	-7.78087E+00
3.71107E-01	-2.14450E-01	3.09952E+00	-7.74417E+00
2.44770E-01	-3.20820E-01	3.09812E+00	-7.70778E+00
9.38989E-02	-3.63456E-01	3.09674E+00	-7.67168E+00
-5.19178E-02	-3.40770E-01	3.09537E+00	-7.63587E+00
-1.66316E-01	-2.64020E-01	3.09404E+00	-7.60035E+00
-2.31328E-01	-1.54240E-01	3.09273E+00	-7.56512E+00
-2.40551E-01	-3.72481E-02	3.09145E+00	-7.53019E+00
-1.99655E-01	6.20185E-02	3.09020E+00	-7.49555E+00
-1.24370E-01	1.24698E-01	3.08896E+00	-7.46120E+00
-3.64126E-02	1.41598E-01	3.08774E+00	-7.42715E+00
4.15809E-02	1.14477E-01	3.08652E+00	-7.39337E+00
9.10384E-02	5.49678E-02	3.08530E+00	-7.35986E+00
1.01276E-01	-1.85784E-02	3.08410E+00	-7.32660E+00
7.14278E-02	-8.55126E-02	3.08290E+00	-7.29361E+00
1.01745E-02	-1.27554E-01	3.08173E+00	-7.26087E+00
-6.65444E-02	-1.32763E-01	3.08057E+00	-7.22838E+00
-1.39276E-01	-9.79875E-02	3.07943E+00	-7.19615E+00
-1.89425E-01	-2.93493E-02	3.07831E+00	-7.16416E+00
-2.03274E-01	5.92236E-02	3.07720E+00	-7.13241E+00
-1.74918E-01	1.49082E-01	3.07611E+00	-7.10091E+00
-1.07459E-01	2.20875E-01	3.07504E+00	-7.06964E+00
-1.23490E-02	2.58590E-01	3.07400E+00	-7.03861E+00
9.30037E-02	2.52897E-01	3.07298E+00	-7.00783E+00
1.88803E-01	2.03049E-01	3.07199E+00	-6.97730E+00
2.56899E-01	1.16997E-01	3.07101E+00	-6.94701E+00
2.84372E-01	9.77569E-03	3.07002E+00	-6.91698E+00
2.66079E-01	-9.95383E-02	3.06902E+00	-6.88717E+00
2.05564E-01	-1.91620E-01	3.06800E+00	-6.85758E+00
1.14208E-01	-2.50692E-01	3.06697E+00	-6.82818E+00
8.87087E-03	-2.67470E-01	3.06595E+00	-6.79897E+00
-9.15271E-02	-2.40816E-01	3.06496E+00	-6.76993E+00
-1.69716E-01	-1.77687E-01	3.06402E+00	-6.74109E+00
-2.13341E-01	-9.15132E-02	3.06312E+00	-6.71246E+00
-2.17171E-01	7.00380E-04	3.06226E+00	-6.68406E+00
-1.83745E-01	8.17628E-02	3.06142E+00	-6.65590E+00
-1.22549E-01	1.37677E-01	3.06059E+00	-6.62796E+00
-4.78090E-02	1.60200E-01	3.05975E+00	-6.60025E+00
2.45328E-02	1.48169E-01	3.05890E+00	-6.57276E+00
8.00451E-02	1.07381E-01	3.05803E+00	-6.54546E+00
1.08603E-01	4.91113E-02	3.05713E+00	-6.51833E+00
1.06225E-01	-1.23727E-02	3.05624E+00	-6.49136E+00
7.56469E-02	-6.28261E-02	3.05537E+00	-6.46455E+00
2.55520E-02	-9.08833E-02	3.05452E+00	-6.43791E+00
-3.13295E-02	-9.03457E-02	3.05370E+00	-6.41145E+00
-8.08981E-02	-6.13904E-02	3.05291E+00	-6.38518E+00
-1.10613E-01	-1.05240E-02	3.05215E+00	-6.35910E+00
-1.12128E-01	5.07171E-02	3.05140E+00	-6.33322E+00
-8.31323E-02	1.08081E-01	3.05064E+00	-6.30754E+00
-2.80074E-02	1.47547E-01	3.04988E+00	-6.28203E+00
4.28091E-02	1.58268E-01	3.04911E+00	-6.25669E+00
1.14766E-01	1.35062E-01	3.04835E+00	-6.23152E+00
1.72077E-01	7.98154E-02	3.04759E+00	-6.20650E+00
2.01030E-01	1.50532E-03	3.04684E+00	-6.18163E+00
1.93067E-01	-8.52934E-02	3.04611E+00	-6.15693E+00
1.46960E-01	-1.63186E-01	3.04539E+00	-6.13240E+00
6.95134E-02	-2.15579E-01	3.04468E+00	-6.10802E+00
-2.53844E-02	-2.30278E-01	3.04398E+00	-6.08382E+00
-1.19401E-01	-2.02438E-01	3.04328E+00	-6.05977E+00
-1.93526E-01	-1.36013E-01	3.04258E+00	-6.03587E+00
-2.32222E-01	-4.33114E-02	3.04190E+00	-6.01212E+00
-2.27000E-01	5.73605E-02	3.04122E+00	-5.98853E+00
-1.78571E-01	1.45542E-01	3.04055E+00	-5.96508E+00
-9.69747E-02	2.03116E-01	3.03990E+00	-5.94178E+00
4.89067E-04	2.18462E-01	3.03925E+00	-5.91864E+00
9.29898E-02	1.89149E-01	3.03861E+00	-5.89564E+00
1.60901E-01	1.22631E-01	3.03798E+00	-5.87279E+00
1.90295E-01	3.45720E-02	3.03735E+00	-5.85009E+00
1.76150E-01	-5.47697E-02	3.03673E+00	-5.82752E+00
1.23457E-01	-1.25277E-01	3.03611E+00	-5.80510E+00
4.59471E-02	-1.61668E-01	3.03549E+00	-5.78281E+00
-3.73144E-02	-1.57017E-01	3.03489E+00	-5.76066E+00
-1.06490E-01	-1.14189E-01	3.03429E+00	-5.73865E+00
-1.45719E-01	-4.49330E-02	3.03371E+00	-5.71677E+00
-1.46754E-01	3.31780E-02	3.03312E+00	-5.69503E+00
-1.10673E-01	1.01113E-01	3.03254E+00	-5.67343E+00
-4.72620E-02	1.42954E-01	3.03196E+00	-5.65195E+00
2.76467E-02	1.49539E-01	3.03139E+00	-5.63060E+00
9.62230E-02	1.20299E-01	3.03082E+00	-5.60938E+00
1.42864E-01	6.29475E-02	3.03026E+00	-5.58828E+00
1.57714E-01	-8.77434E-03	3.02970E+00	-5.56730E+00
1.38554E-01	-7.86348E-02	3.02915E+00	-5.54645E+00
9.07657E-02	-1.31760E-01	3.02861E+00	-5.52573E+00
2.55335E-02	-1.57842E-01	3.02807E+00	-5.50512E+00
-4.31052E-02	-1.52997E-01	3.02753E+00	-5.48464E+00
-1.01541E-01	-1.19983E-01	3.02700E+00	-5.46427E+00
-1.39424E-01	-6.68956E-02	3.02648E+00	-5.44401E+00
-1.51345E-01	-4.90732E-03	3.02597E+00	-5.42388E+00
-1.37295E-01	5.43432E-02	3.02547E+00	-5.40386E+00
-1.01896E-01	1.01028E-01	3.02498E+00	-5.38397E+00
-5.28572E-02	1.28637E-01	3.02448E+00	-5.36419E+00
8.51109E-04	1.34555E-01	3.02399E+00	-5.34452E+00
5.06392E-02	1.19824E-01	3.02350E+00	-5.32497E+00
8.95184E-02	8.83431E-02	3.02301E+00	-5.30553E+00
1.12719E-01	4.58925E-02	3.02252E+00	-5.28619E+00
