 Vespa-Simulation Mixed Metabolite Output
 This file was generated by Vespa-Simulation. You can learn about and download Vespa here:
https://github.com/vespa-mrs/vespa/tree/main/vespa

 
 Output Path/Filename = /home/stud/casperc/bhome/Project1(DeepFit)/DeepFit-data-generation/DeepFitData_TE_20_lw14_2048p
 Output Loop Values = (1,1,1)  ( Loop 1 = 10, Loop 2 = 10, Loop3 Inactive )
 Output Comment
 ---------------------------------------------------------------------------
 
 
 Experiment Information
 ---------------------------------------------------------------------------
 --- Experiment 18b0168e-f5f0-4bd4-8d52-da93aba06c60 ---
 Name: SyntheticDataSetDeepFitTE20
 Public: False
 Created: 2024-10-08T09:55:07
 Comment (abbr.): 
 PI: Casper Cappelen
 b0: 127.740000
 Peak Search PPM low/high: -15.000000 / 15.000000
 Blend tol. PPM/phase: 0.001500 / 50.000000
 Pulse seq.: 43be13ae-de9a-40a1-9a2d-c872d8bjs100 (PRESS Ideal)
 0 User static parameters: 
 22 Metabolites: 2-hydroxyglutarate, GPC-pcholine2, NAAG-truncated, alanine, choline-trimethyl, creatine, ethanolamine, gaba, glucose-beta, glutamate, glutamine, glutathione-glutamate, glutathione-glycine-cysteine, glycine, lactate, myo-inositol, n-acetylaspartate, phosphocreatine, phosphorylcholine-trimethyl, phosphorylethanolamine, pyruvate, taurine
 22 Simulations: (not shown)
 
 Metabolite Formatting Information
 ---------------------------------------------------------------------------
 Name=2-hydroxyglutarate Abbr=2HG Scale=1.0 Shift=0.0 PPM Start=-3.1207465171441986 PPM End=12.528391440425866
 Name=GPC-pcholine2 Abbr=GPC Scale=1.0 Shift=0.0 PPM Start=-3.1207465171441986 PPM End=12.528391440425866
 Name=NAAG-truncated Abbr=NAAG Scale=1.0 Shift=0.0 PPM Start=-3.1207465171441986 PPM End=12.528391440425866
 Name=alanine Abbr=Ala Scale=1.0 Shift=0.0 PPM Start=-3.1207465171441986 PPM End=12.528391440425866
 Name=choline-trimethyl Abbr=Cho Scale=1.0 Shift=0.0 PPM Start=-3.1207465171441986 PPM End=12.528391440425866
 Name=creatine Abbr=Cr Scale=1.0 Shift=0.0 PPM Start=-3.1207465171441986 PPM End=12.528391440425866
 Name=ethanolamine Abbr=ETA Scale=1.0 Shift=0.0 PPM Start=-3.1207465171441986 PPM End=12.528391440425866
 Name=gaba Abbr=GABA Scale=1.0 Shift=0.0 PPM Start=-3.1207465171441986 PPM End=12.528391440425866
 Name=glucose-beta Abbr=Glc Scale=1.0 Shift=0.0 PPM Start=-3.1207465171441986 PPM End=12.528391440425866
 Name=glutamate Abbr=Glu Scale=1.0 Shift=0.0 PPM Start=-3.1207465171441986 PPM End=12.528391440425866
 Name=glutamine Abbr=Gln Scale=1.0 Shift=0.0 PPM Start=-3.1207465171441986 PPM End=12.528391440425866
 Name=glycine Abbr=Gly Scale=1.0 Shift=0.0 PPM Start=-3.1207465171441986 PPM End=12.528391440425866
 Name=lactate Abbr=Lac Scale=1.0 Shift=0.0 PPM Start=-3.1207465171441986 PPM End=12.528391440425866
 Name=myo-inositol Abbr=mI Scale=1.0 Shift=0.0 PPM Start=-3.1207465171441986 PPM End=12.528391440425866
 Name=n-acetylaspartate Abbr=NAA Scale=1.0 Shift=0.0 PPM Start=-3.1207465171441986 PPM End=12.528391440425866
 Name=phosphocreatine Abbr=PCr Scale=1.0 Shift=0.0 PPM Start=-3.1207465171441986 PPM End=12.528391440425866
 Name=phosphorylcholine-trimethyl Abbr=PCho Scale=1.0 Shift=0.0 PPM Start=-3.1207465171441986 PPM End=12.528391440425866
 Name=phosphorylethanolamine Abbr=PE Scale=1.0 Shift=0.0 PPM Start=-3.1207465171441986 PPM End=12.528391440425866
 Name=pyruvate Abbr=Pyr Scale=1.0 Shift=0.0 PPM Start=-3.1207465171441986 PPM End=12.528391440425866
 Name=taurine Abbr=Tau Scale=1.0 Shift=0.0 PPM Start=-3.1207465171441986 PPM End=12.528391440425866
 Name=glutathione-glutamate+glutathione-glycine-cysteine Abbr=GSH Scale=1.0 Shift=0.0 PPM Start=-3.1207565171441987 PPM End=12.528
   Mixture of [metab*scale] = glutathione-glutamate*1.000000 + glutathione-glycine-cysteine*1.000000
 
 ===========================================================================
 This LCModel format RAW file was created using the 
 Vespa-Simulation spectral simulation program using 
 the following settings and parameters 
 
 Sweep Width = 2000.0 Hz 
 Vector Size = 2048 points 
 Apodization = 14.0 Hz Lorentzian broadening
 B0 Field    = 127.74 MHz 
 Ref Singlet = False
  
 $NMID ID='2HG'
 FMTDAT='(2E16.6)'
 VOLUME=1.0
 TRAMP=1.0
 $END
    4.583992E+00    2.722371E-02
    2.609887E+00    3.393786E+00
   -1.090844E+00    3.473165E+00
   -2.862582E+00    5.440905E-01
   -1.228384E+00   -2.170889E+00
    1.782419E+00   -1.932642E+00
    2.933332E+00    8.173228E-01
    1.104016E+00    3.166643E+00
   -1.797867E+00    2.841215E+00
   -3.017143E+00    3.678595E-01
   -1.720589E+00   -1.761602E+00
    4.560421E-01   -1.741289E+00
    1.331308E+00   -7.181518E-02
    3.369745E-01    1.287526E+00
   -1.224069E+00    1.025371E+00
   -1.748226E+00   -4.067587E-01
   -8.844080E-01   -1.560742E+00
    4.098934E-01   -1.532319E+00
    1.038073E+00   -6.469998E-01
    7.679732E-01    1.519401E-01
    1.748046E-01    3.034167E-01
   -1.185241E-01   -2.319571E-02
    2.246642E-02   -3.446133E-01
    3.446522E-01   -3.863395E-01
    5.907719E-01   -1.848902E-01
    6.695604E-01    1.263501E-01
    5.626028E-01    4.534906E-01
    2.580035E-01    6.852200E-01
   -1.562565E-01    6.666053E-01
   -4.374610E-01    3.529093E-01
   -3.668206E-01   -4.149214E-02
   -1.615585E-02   -1.690779E-01
    2.431461E-01    1.022610E-01
    8.397606E-02    4.976433E-01
   -4.144456E-01    5.676748E-01
   -7.999821E-01    1.464906E-01
   -6.850380E-01   -4.477040E-01
   -1.465212E-01   -7.066968E-01
    3.362557E-01   -4.339067E-01
    3.520562E-01    6.198057E-02
   -4.338888E-02    2.793265E-01
   -4.001063E-01    1.827248E-02
   -3.296402E-01   -4.403455E-01
    1.230732E-01   -6.324132E-01
    5.485110E-01   -3.655803E-01
    5.838268E-01    1.178658E-01
    2.458126E-01    4.012975E-01
   -1.213105E-01    2.920945E-01
   -1.948336E-01   -2.858412E-02
    3.713178E-02   -2.152528E-01
    3.042465E-01   -9.142267E-02
    3.338810E-01    2.123420E-01
    9.619168E-02    4.140572E-01
   -1.999963E-01    3.494767E-01
   -3.208550E-01    9.990675E-02
   -2.118373E-01   -1.123945E-01
   -1.652952E-02   -1.344176E-01
    7.671731E-02   -3.362391E-04
    1.349525E-03    1.284200E-01
   -1.509144E-01    1.206999E-01
   -2.324555E-01   -1.804528E-02
   -1.721569E-01   -1.706697E-01
   -2.319148E-02   -2.216009E-01
    9.864089E-02   -1.506230E-01
    1.173049E-01   -3.420878E-02
    5.026863E-02    3.095440E-02
   -2.118408E-02    7.973128E-03
   -2.747690E-02   -6.087585E-02
    3.508037E-02   -1.006817E-01
    1.106631E-01   -6.924485E-02
    1.365774E-01    1.291078E-02
    9.423738E-02    8.614012E-02
    1.895860E-02    1.031345E-01
   -3.382017E-02    6.446957E-02
   -3.416613E-02    1.235919E-02
    1.996496E-03   -7.744205E-03
    3.128815E-02    1.604753E-02
    2.150461E-02    5.611215E-02
   -2.257541E-02    7.218756E-02
   -6.617119E-02    4.632003E-02
   -7.586567E-02   -3.586853E-03
   -4.737547E-02   -4.123028E-02
   -6.760655E-03   -4.335256E-02
    1.386691E-02   -1.767018E-02
    3.581819E-03    6.806970E-03
   -2.054882E-02    6.541955E-03
   -3.113536E-02   -1.695936E-02
   -1.534189E-02   -4.093092E-02
    1.511163E-02   -4.317198E-02
    3.615557E-02   -2.142981E-02
    3.324048E-02    6.266044E-03
    1.295491E-02    1.893111E-02
   -4.839052E-03    1.088100E-02
   -5.652975E-03   -5.190774E-03
    7.649592E-03   -1.158517E-02
    1.954276E-02   -1.971529E-03
    1.736026E-02    1.418387E-02
    2.584292E-03    2.194128E-02
   -1.193318E-02    1.510464E-02
   -1.483593E-02    9.323256E-04
   -6.319890E-03   -7.978091E-03
    3.581567E-03   -5.727529E-03
    5.533615E-03    2.538858E-03
   -6.358081E-04    7.085207E-03
   -7.200778E-03    3.414069E-03
   -7.053494E-03   -4.220229E-03
   -4.400460E-04   -8.081822E-03
    6.222220E-03   -4.793831E-03
    7.208746E-03    2.044388E-03
    2.716126E-03    6.192214E-03
   -2.241160E-03    4.935065E-03
   -3.267787E-03    1.003283E-03
   -5.965264E-04   -9.011179E-04
    1.858889E-03    1.104959E-03
    7.726872E-04    4.638746E-03
   -3.442735E-03    5.796092E-03
   -7.341948E-03    2.979637E-03
   -7.856020E-03   -1.816877E-03
   -4.998383E-03   -5.106022E-03
   -1.535758E-03   -5.124727E-03
   -2.355160E-04   -3.194648E-03
   -1.363166E-03   -2.190308E-03
   -2.648261E-03   -3.713813E-03
   -1.591836E-03   -6.608625E-03
    2.102169E-03   -8.106818E-03
    6.224294E-03   -6.459081E-03
    8.109906E-03   -2.554640E-03
    7.060760E-03    9.693246E-04
    4.827989E-03    2.218453E-03
    3.757247E-03    1.694867E-03
    4.482731E-03    1.546065E-03
    5.451588E-03    3.252108E-03
    4.657792E-03    6.124480E-03
    1.732295E-03    8.074850E-03
   -1.739732E-03    7.747713E-03
   -3.881571E-03    5.767849E-03
   -4.331422E-03    3.896713E-03
   -4.328114E-03    3.129604E-03
   -5.129671E-03    2.794934E-03
   -6.559802E-03    1.529008E-03
   -7.232033E-03   -1.041101E-03
   -6.132450E-03   -3.758258E-03
   -3.811640E-03   -5.101887E-03
   -1.894383E-03   -4.797028E-03
   -1.398414E-03   -4.146028E-03
   -1.600437E-03   -4.674225E-03
   -6.890203E-04   -6.403549E-03
    2.304192E-03   -7.533168E-03
    6.142238E-03   -6.053844E-03
    8.114878E-03   -1.939614E-03
    6.525343E-03    2.261932E-03
    2.718358E-03    3.430441E-03
    3.819250E-04    9.868801E-04
    2.164444E-03   -1.932058E-03
    6.559889E-03   -1.028562E-03
    8.558339E-03    4.673676E-03
    4.341853E-03    1.087852E-02
   -4.161792E-03    1.143364E-02
   -1.000063E-02    4.634850E-03
   -7.642967E-03   -3.954178E-03
    7.874643E-04   -6.101881E-03
    6.486990E-03    6.743037E-04
    2.455335E-03    9.503622E-03
   -8.608477E-03    1.023095E-02
   -1.583478E-02    2.479178E-06
   -1.084336E-02   -1.263837E-02
    2.944829E-03   -1.551135E-02
    1.268300E-02   -5.363126E-03
    8.809012E-03    7.904936E-03
   -4.667699E-03    1.067799E-02
   -1.355741E-02   -3.199637E-04
   -7.833749E-03   -1.407610E-02
    7.725857E-03   -1.617844E-02
    1.799921E-02   -3.653985E-03
