 Vespa-Simulation Mixed Metabolite Output
 This file was generated by Vespa-Simulation. You can learn about and download Vespa here:
https://github.com/vespa-mrs/vespa/tree/main/vespa

 
 Output Path/Filename = /home/stud/casperc/bhome/Project1(DeepFit)/DeepFit-data-generation/DeepFitData_TE_20_lw14_2048p
 Output Loop Values = (1,1,1)  ( Loop 1 = 10, Loop 2 = 10, Loop3 Inactive )
 Output Comment
 ---------------------------------------------------------------------------
 
 
 Experiment Information
 ---------------------------------------------------------------------------
 --- Experiment 18b0168e-f5f0-4bd4-8d52-da93aba06c60 ---
 Name: SyntheticDataSetDeepFitTE20
 Public: False
 Created: 2024-10-08T09:55:07
 Comment (abbr.): 
 PI: Casper Cappelen
 b0: 127.740000
 Peak Search PPM low/high: -15.000000 / 15.000000
 Blend tol. PPM/phase: 0.001500 / 50.000000
 Pulse seq.: 43be13ae-de9a-40a1-9a2d-c872d8bjs100 (PRESS Ideal)
 0 User static parameters: 
 22 Metabolites: 2-hydroxyglutarate, GPC-pcholine2, NAAG-truncated, alanine, choline-trimethyl, creatine, ethanolamine, gaba, glucose-beta, glutamate, glutamine, glutathione-glutamate, glutathione-glycine-cysteine, glycine, lactate, myo-inositol, n-acetylaspartate, phosphocreatine, phosphorylcholine-trimethyl, phosphorylethanolamine, pyruvate, taurine
 22 Simulations: (not shown)
 
 Metabolite Formatting Information
 ---------------------------------------------------------------------------
 Name=2-hydroxyglutarate Abbr=2HG Scale=1.0 Shift=0.0 PPM Start=-3.1207465171441986 PPM End=12.528391440425866
 Name=GPC-pcholine2 Abbr=GPC Scale=1.0 Shift=0.0 PPM Start=-3.1207465171441986 PPM End=12.528391440425866
 Name=NAAG-truncated Abbr=NAAG Scale=1.0 Shift=0.0 PPM Start=-3.1207465171441986 PPM End=12.528391440425866
 Name=alanine Abbr=Ala Scale=1.0 Shift=0.0 PPM Start=-3.1207465171441986 PPM End=12.528391440425866
 Name=choline-trimethyl Abbr=Cho Scale=1.0 Shift=0.0 PPM Start=-3.1207465171441986 PPM End=12.528391440425866
 Name=creatine Abbr=Cr Scale=1.0 Shift=0.0 PPM Start=-3.1207465171441986 PPM End=12.528391440425866
 Name=ethanolamine Abbr=ETA Scale=1.0 Shift=0.0 PPM Start=-3.1207465171441986 PPM End=12.528391440425866
 Name=gaba Abbr=GABA Scale=1.0 Shift=0.0 PPM Start=-3.1207465171441986 PPM End=12.528391440425866
 Name=glucose-beta Abbr=Glc Scale=1.0 Shift=0.0 PPM Start=-3.1207465171441986 PPM End=12.528391440425866
 Name=glutamate Abbr=Glu Scale=1.0 Shift=0.0 PPM Start=-3.1207465171441986 PPM End=12.528391440425866
 Name=glutamine Abbr=Gln Scale=1.0 Shift=0.0 PPM Start=-3.1207465171441986 PPM End=12.528391440425866
 Name=glycine Abbr=Gly Scale=1.0 Shift=0.0 PPM Start=-3.1207465171441986 PPM End=12.528391440425866
 Name=lactate Abbr=Lac Scale=1.0 Shift=0.0 PPM Start=-3.1207465171441986 PPM End=12.528391440425866
 Name=myo-inositol Abbr=mI Scale=1.0 Shift=0.0 PPM Start=-3.1207465171441986 PPM End=12.528391440425866
 Name=n-acetylaspartate Abbr=NAA Scale=1.0 Shift=0.0 PPM Start=-3.1207465171441986 PPM End=12.528391440425866
 Name=phosphocreatine Abbr=PCr Scale=1.0 Shift=0.0 PPM Start=-3.1207465171441986 PPM End=12.528391440425866
 Name=phosphorylcholine-trimethyl Abbr=PCho Scale=1.0 Shift=0.0 PPM Start=-3.1207465171441986 PPM End=12.528391440425866
 Name=phosphorylethanolamine Abbr=PE Scale=1.0 Shift=0.0 PPM Start=-3.1207465171441986 PPM End=12.528391440425866
 Name=pyruvate Abbr=Pyr Scale=1.0 Shift=0.0 PPM Start=-3.1207465171441986 PPM End=12.528391440425866
 Name=taurine Abbr=Tau Scale=1.0 Shift=0.0 PPM Start=-3.1207465171441986 PPM End=12.528391440425866
 Name=glutathione-glutamate+glutathione-glycine-cysteine Abbr=GSH Scale=1.0 Shift=0.0 PPM Start=-3.1207565171441987 PPM End=12.528
   Mixture of [metab*scale] = glutathione-glutamate*1.000000 + glutathione-glycine-cysteine*1.000000
 
 ===========================================================================
 This LCModel format RAW file was created using the 
 Vespa-Simulation spectral simulation program using 
 the following settings and parameters 
 
 Sweep Width = 2000.0 Hz 
 Vector Size = 2048 points 
 Apodization = 14.0 Hz Lorentzian broadening
 B0 Field    = 127.74 MHz 
 Ref Singlet = False
  
 This data has been FFTd to be in the FREQUENCY domain
 
 $NMID ID='2HG'
 FMTDAT='(2E16.6)'
 VOLUME=1.0
 TRAMP=1.0
 $END
    2.640741E+00    6.429206E+00
    2.648237E+00    6.477137E+00
    2.655990E+00    6.525946E+00
    2.664012E+00    6.575659E+00
    2.672316E+00    6.626305E+00
    2.680916E+00    6.677916E+00
    2.689825E+00    6.730523E+00
    2.699060E+00    6.784158E+00
    2.708634E+00    6.838858E+00
    2.718566E+00    6.894658E+00
    2.728873E+00    6.951597E+00
    2.739575E+00    7.009715E+00
    2.750692E+00    7.069055E+00
    2.762247E+00    7.129661E+00
    2.774262E+00    7.191578E+00
    2.786762E+00    7.254854E+00
    2.799775E+00    7.319542E+00
    2.813327E+00    7.385693E+00
    2.827448E+00    7.453365E+00
    2.842171E+00    7.522616E+00
    2.857530E+00    7.593511E+00
    2.873561E+00    7.666114E+00
    2.890304E+00    7.740495E+00
    2.907802E+00    7.816726E+00
    2.926099E+00    7.894886E+00
    2.945243E+00    7.975056E+00
    2.965285E+00    8.057322E+00
    2.986279E+00    8.141779E+00
    3.008285E+00    8.228525E+00
    3.031366E+00    8.317666E+00
    3.055592E+00    8.409314E+00
    3.081036E+00    8.503592E+00
    3.107778E+00    8.600630E+00
    3.135903E+00    8.700570E+00
    3.165507E+00    8.803571E+00
    3.196695E+00    8.909808E+00
    3.229593E+00    9.019475E+00
    3.264350E+00    9.132786E+00
    3.301151E+00    9.249971E+00
    3.340224E+00    9.371261E+00
    3.381836E+00    9.496880E+00
    3.426288E+00    9.627022E+00
    3.473890E+00    9.761856E+00
    3.524942E+00    9.901528E+00
    3.579723E+00    1.004619E+01
    3.638492E+00    1.019600E+01
    3.701504E+00    1.035122E+01
    3.769037E+00    1.051211E+01
    3.841423E+00    1.067905E+01
    3.919067E+00    1.085245E+01
    4.002454E+00    1.103274E+01
    4.092155E+00    1.122040E+01
    4.188825E+00    1.141591E+01
    4.293206E+00    1.161979E+01
    4.406138E+00    1.183258E+01
    4.528569E+00    1.205488E+01
    4.661578E+00    1.228730E+01
    4.806400E+00    1.253056E+01
    4.964468E+00    1.278540E+01
    5.137473E+00    1.305267E+01
    5.327446E+00    1.333328E+01
    5.536859E+00    1.362818E+01
    5.768732E+00    1.393823E+01
    6.026703E+00    1.426413E+01
    6.315046E+00    1.460618E+01
    6.638635E+00    1.496423E+01
    7.002938E+00    1.533759E+01
    7.414087E+00    1.572497E+01
    7.879044E+00    1.612437E+01
    8.405823E+00    1.653281E+01
    9.003688E+00    1.694583E+01
    9.683240E+00    1.735677E+01
    1.045629E+01    1.775584E+01
    1.133536E+01    1.812886E+01
    1.233261E+01    1.845588E+01
    1.345785E+01    1.870960E+01
    1.471510E+01    1.885427E+01
    1.609745E+01    1.884592E+01
    1.758035E+01    1.863577E+01
    1.911551E+01    1.817926E+01
    2.063040E+01    1.745140E+01
    2.204052E+01    1.646423E+01
    2.327703E+01    1.527351E+01
    2.431696E+01    1.395951E+01
    2.518901E+01    1.258525E+01
    2.594077E+01    1.116367E+01
    2.659200E+01    9.666051E+00
    2.711667E+01    8.063769E+00
    2.746545E+01    6.362273E+00
    2.760005E+01    4.601867E+00
    2.751090E+01    2.836664E+00
    2.721565E+01    1.112257E+00
    2.674458E+01   -5.500481E-01
    2.611583E+01   -2.154117E+00
    2.531693E+01   -3.705995E+00
    2.431558E+01   -5.181526E+00
    2.309596E+01   -6.517338E+00
    2.168721E+01   -7.636692E+00
    2.015981E+01   -8.485928E+00
    1.859891E+01   -9.052586E+00
    1.707860E+01   -9.360030E+00
    1.564993E+01   -9.451364E+00
    1.434085E+01   -9.374863E+00
    1.316152E+01   -9.175171E+00
    1.211050E+01   -8.889530E+00
    1.117976E+01   -8.547064E+00
    1.035814E+01   -8.169552E+00
    9.633668E+00   -7.772746E+00
    8.994745E+00   -7.367760E+00
    8.430864E+00   -6.962318E+00
    7.932811E+00   -6.561798E+00
    7.492599E+00   -6.170050E+00
    7.103214E+00   -5.789946E+00
    6.758300E+00   -5.423647E+00
    6.451944E+00   -5.072621E+00
    6.178659E+00   -4.737580E+00
    5.933514E+00   -4.418487E+00
    5.712287E+00   -4.114708E+00
    5.511529E+00   -3.825253E+00
    5.328490E+00   -3.549016E+00
    5.160988E+00   -3.284922E+00
    5.007261E+00   -3.032002E+00
    4.865849E+00   -2.789401E+00
    4.735518E+00   -2.556364E+00
    4.615212E+00   -2.332225E+00
    4.504019E+00   -2.116388E+00
    4.401148E+00   -1.908332E+00
    4.305897E+00   -1.707610E+00
    4.217623E+00   -1.513833E+00
    4.135709E+00   -1.326648E+00
    4.059573E+00   -1.145704E+00
    3.988686E+00   -9.706303E-01
    3.922597E+00   -8.010576E-01
    3.860931E+00   -6.366438E-01
    3.803363E+00   -4.770857E-01
    3.749601E+00   -3.221128E-01
    3.699390E+00   -1.714844E-01
    3.652496E+00   -2.499921E-02
    3.608685E+00    1.175059E-01
    3.567696E+00    2.561843E-01
    3.529263E+00    3.912165E-01
    3.493145E+00    5.228201E-01
    3.459160E+00    6.512225E-01
    3.427179E+00    7.766219E-01
    3.397092E+00    8.991693E-01
    3.368775E+00    1.018983E+00
    3.342083E+00    1.136176E+00
    3.316868E+00    1.250878E+00
    3.292992E+00    1.363237E+00
    3.270342E+00    1.473406E+00
    3.248825E+00    1.581533E+00
    3.228371E+00    1.687757E+00
    3.208918E+00    1.792204E+00
    3.190415E+00    1.894989E+00
    3.172816E+00    1.996216E+00
    3.156078E+00    2.095979E+00
    3.140160E+00    2.194367E+00
    3.125025E+00    2.291463E+00
    3.110637E+00    2.387342E+00
    3.096963E+00    2.482080E+00
    3.083970E+00    2.575743E+00
    3.071627E+00    2.668399E+00
    3.059906E+00    2.760110E+00
    3.048780E+00    2.850937E+00
    3.038223E+00    2.940937E+00
    3.028211E+00    3.030166E+00
    3.018721E+00    3.118678E+00
    3.009733E+00    3.206524E+00
    3.001227E+00    3.293754E+00
    2.993183E+00    3.380415E+00
    2.985586E+00    3.466555E+00
    2.978417E+00    3.552217E+00
