 Vespa-Simulation Mixed Metabolite Output
 This file was generated by Vespa-Simulation. You can learn about and download Vespa here:
https://github.com/vespa-mrs/vespa/tree/main/vespa

 
 Output Path/Filename = /home/stud/casperc/bhome/Project1(DeepFit)/DeepFit-data-generation/DeepFitData_TE_20_lw14_2048p
 Output Loop Values = (1,1,1)  ( Loop 1 = 10, Loop 2 = 10, Loop3 Inactive )
 Output Comment
 ---------------------------------------------------------------------------
 
 
 Experiment Information
 ---------------------------------------------------------------------------
 --- Experiment 18b0168e-f5f0-4bd4-8d52-da93aba06c60 ---
 Name: SyntheticDataSetDeepFitTE20
 Public: False
 Created: 2024-10-08T09:55:07
 Comment (abbr.): 
 PI: Casper Cappelen
 b0: 127.740000
 Peak Search PPM low/high: -15.000000 / 15.000000
 Blend tol. PPM/phase: 0.001500 / 50.000000
 Pulse seq.: 43be13ae-de9a-40a1-9a2d-c872d8bjs100 (PRESS Ideal)
 0 User static parameters: 
 22 Metabolites: 2-hydroxyglutarate, GPC-pcholine2, NAAG-truncated, alanine, choline-trimethyl, creatine, ethanolamine, gaba, glucose-beta, glutamate, glutamine, glutathione-glutamate, glutathione-glycine-cysteine, glycine, lactate, myo-inositol, n-acetylaspartate, phosphocreatine, phosphorylcholine-trimethyl, phosphorylethanolamine, pyruvate, taurine
 22 Simulations: (not shown)
 
 Metabolite Formatting Information
 ---------------------------------------------------------------------------
 Name=2-hydroxyglutarate Abbr=2HG Scale=1.0 Shift=0.0 PPM Start=-3.1207465171441986 PPM End=12.528391440425866
 Name=GPC-pcholine2 Abbr=GPC Scale=1.0 Shift=0.0 PPM Start=-3.1207465171441986 PPM End=12.528391440425866
 Name=NAAG-truncated Abbr=NAAG Scale=1.0 Shift=0.0 PPM Start=-3.1207465171441986 PPM End=12.528391440425866
 Name=alanine Abbr=Ala Scale=1.0 Shift=0.0 PPM Start=-3.1207465171441986 PPM End=12.528391440425866
 Name=choline-trimethyl Abbr=Cho Scale=1.0 Shift=0.0 PPM Start=-3.1207465171441986 PPM End=12.528391440425866
 Name=creatine Abbr=Cr Scale=1.0 Shift=0.0 PPM Start=-3.1207465171441986 PPM End=12.528391440425866
 Name=ethanolamine Abbr=ETA Scale=1.0 Shift=0.0 PPM Start=-3.1207465171441986 PPM End=12.528391440425866
 Name=gaba Abbr=GABA Scale=1.0 Shift=0.0 PPM Start=-3.1207465171441986 PPM End=12.528391440425866
 Name=glucose-beta Abbr=Glc Scale=1.0 Shift=0.0 PPM Start=-3.1207465171441986 PPM End=12.528391440425866
 Name=glutamate Abbr=Glu Scale=1.0 Shift=0.0 PPM Start=-3.1207465171441986 PPM End=12.528391440425866
 Name=glutamine Abbr=Gln Scale=1.0 Shift=0.0 PPM Start=-3.1207465171441986 PPM End=12.528391440425866
 Name=glycine Abbr=Gly Scale=1.0 Shift=0.0 PPM Start=-3.1207465171441986 PPM End=12.528391440425866
 Name=lactate Abbr=Lac Scale=1.0 Shift=0.0 PPM Start=-3.1207465171441986 PPM End=12.528391440425866
 Name=myo-inositol Abbr=mI Scale=1.0 Shift=0.0 PPM Start=-3.1207465171441986 PPM End=12.528391440425866
 Name=n-acetylaspartate Abbr=NAA Scale=1.0 Shift=0.0 PPM Start=-3.1207465171441986 PPM End=12.528391440425866
 Name=phosphocreatine Abbr=PCr Scale=1.0 Shift=0.0 PPM Start=-3.1207465171441986 PPM End=12.528391440425866
 Name=phosphorylcholine-trimethyl Abbr=PCho Scale=1.0 Shift=0.0 PPM Start=-3.1207465171441986 PPM End=12.528391440425866
 Name=phosphorylethanolamine Abbr=PE Scale=1.0 Shift=0.0 PPM Start=-3.1207465171441986 PPM End=12.528391440425866
 Name=pyruvate Abbr=Pyr Scale=1.0 Shift=0.0 PPM Start=-3.1207465171441986 PPM End=12.528391440425866
 Name=taurine Abbr=Tau Scale=1.0 Shift=0.0 PPM Start=-3.1207465171441986 PPM End=12.528391440425866
 Name=glutathione-glutamate+glutathione-glycine-cysteine Abbr=GSH Scale=1.0 Shift=0.0 PPM Start=-3.1207565171441987 PPM End=12.528
   Mixture of [metab*scale] = glutathione-glutamate*1.000000 + glutathione-glycine-cysteine*1.000000
 
 ===========================================================================
 This LCModel format RAW file was created using the 
 Vespa-Simulation spectral simulation program using 
 the following settings and parameters 
 
 Sweep Width = 2000.0 Hz 
 Vector Size = 2048 points 
 Apodization = 14.0 Hz Lorentzian broadening
 B0 Field    = 127.74 MHz 
 Ref Singlet = False
  
 $NMID ID='Ala'
 FMTDAT='(2E16.6)'
 VOLUME=1.0
 TRAMP=1.0
 $END
    3.438944E+00   -1.229099E-02
    1.394303E+00    2.801668E+00
   -1.682733E+00    1.835875E+00
   -1.574189E+00   -1.077530E+00
    1.115495E+00   -1.537932E+00
    2.121878E+00    1.017521E+00
   -1.782544E-01    2.726157E+00
   -2.568516E+00    1.047435E+00
   -1.801409E+00   -1.672367E+00
    8.016163E-01   -1.768003E+00
    1.481252E+00    5.029137E-01
   -4.985586E-01    1.577931E+00
   -1.999029E+00   -1.426198E-01
   -7.099575E-01   -2.122951E+00
    1.588902E+00   -1.524092E+00
    1.759884E+00    7.420601E-01
   -1.850825E-01    1.505388E+00
   -1.297632E+00   -5.853573E-02
   -4.896881E-02   -1.421968E+00
    1.592184E+00   -5.097039E-01
    1.170755E+00    1.367331E+00
   -7.278943E-01    1.559609E+00
   -1.469152E+00   -9.091393E-02
   -2.052431E-01   -1.174041E+00
    1.049184E+00   -2.710930E-01
    4.560909E-01    1.111579E+00
   -1.050134E+00    8.722081E-01
   -1.259064E+00   -6.582401E-01
    1.008619E-01   -1.322642E+00
    1.089019E+00   -2.947353E-01
    4.244344E-01    8.413307E-01
   -7.583773E-01    4.845293E-01
   -6.803130E-01   -7.236757E-01
    5.175730E-01   -9.598923E-01
    1.094475E+00    1.170716E-01
    2.740137E-01    9.711637E-01
   -7.198449E-01    4.735534E-01
   -5.183866E-01   -5.380244E-01
    4.582190E-01   -5.783289E-01
    7.238890E-01    3.448092E-01
   -9.632032E-02    8.462106E-01
   -8.084642E-01    2.166600E-01
   -4.388451E-01   -6.183812E-01
    4.102124E-01   -5.116548E-01
    5.195353E-01    2.798372E-01
   -1.888786E-01    5.622323E-01
   -6.291461E-01   -4.356905E-02
   -1.697567E-01   -6.268615E-01
    5.069286E-01   -3.643443E-01
    4.584541E-01    3.263123E-01
   -1.757308E-01    4.638384E-01
   -4.535988E-01   -7.855686E-02
   -1.506828E-02   -4.643539E-01
    4.592753E-01   -1.459831E-01
    2.874420E-01    3.875443E-01
   -2.546314E-01    3.781525E-01
   -3.945273E-01   -1.167145E-01
    1.601995E-02   -3.701104E-01
    3.465479E-01   -5.736876E-02
    1.362186E-01    3.250217E-01
   -2.759050E-01    2.253817E-01
   -2.942503E-01   -1.855845E-01
    7.777999E-02   -3.151361E-01
    2.942858E-01   -1.280361E-02
    7.594458E-02    2.594949E-01
   -2.259751E-01    1.269594E-01
   -1.782645E-01   -1.847261E-01
    1.230781E-01   -2.209635E-01
    2.369914E-01    4.672708E-02
    2.409786E-02    2.220195E-01
   -1.894783E-01    7.566397E-02
   -1.110509E-01   -1.539249E-01
    1.171838E-01   -1.394383E-01
    1.613746E-01    7.315882E-02
   -2.160778E-02    1.687253E-01
   -1.565898E-01    2.789948E-02
   -6.528708E-02   -1.303198E-01
    9.967508E-02   -8.897733E-02
    1.038300E-01    6.932457E-02
   -3.774878E-02    1.126202E-01
   -1.128157E-01   -4.026213E-03
   -2.764006E-02   -1.015973E-01
    8.123374E-02   -5.121426E-02
    6.461879E-02    5.775677E-02
   -3.546878E-02    7.044289E-02
   -7.152671E-02   -1.459546E-02
   -5.679522E-03   -6.773815E-02
    5.774023E-02   -2.370862E-02
    3.607453E-02    4.258117E-02
   -2.607369E-02    4.112616E-02
   -4.048698E-02   -1.170694E-02
    2.465431E-04   -3.687923E-02
    3.138496E-02   -9.213110E-03
    1.665774E-02    2.352268E-02
   -1.351826E-02    2.052969E-02
   -1.963807E-02   -3.495211E-03
   -3.932973E-03   -1.488974E-02
    8.643782E-03   -7.744700E-03
    8.737263E-03    2.671345E-03
    2.744390E-03    7.915017E-03
   -5.258183E-03    7.759924E-03
   -1.163561E-02   -2.933745E-04
   -6.528155E-03   -1.289689E-02
    1.068989E-02   -1.352971E-02
    1.893798E-02    5.566671E-03
    1.181713E-03    2.198933E-02
   -2.277093E-02    8.654878E-03
   -1.653088E-02   -2.126725E-02
    1.701252E-02   -2.428332E-02
    3.069586E-02    9.778053E-03
   -2.703621E-04    3.442573E-02
   -3.488176E-02    1.017811E-02
   -2.049655E-02   -3.224591E-02
    2.670638E-02   -3.012894E-02
    3.836120E-02    1.811285E-02
   -6.651813E-03    4.386006E-02
   -4.534102E-02    6.412806E-03
   -1.919633E-02   -4.265611E-02
    3.675154E-02   -3.050749E-02
    4.026527E-02    2.836090E-02
   -1.718290E-02    4.831808E-02
   -5.322648E-02   -2.904502E-03
   -1.312172E-02   -5.298103E-02
    4.712263E-02   -2.797811E-02
    3.944794E-02    3.752958E-02
   -2.647263E-02    4.773000E-02
   -5.417447E-02   -1.416624E-02
   -8.198615E-04   -5.838305E-02
    5.760903E-02   -1.844783E-02
    3.542140E-02    4.977141E-02
   -3.651978E-02    4.756265E-02
   -5.388619E-02   -2.207025E-02
    8.764251E-03   -5.706936E-02
    5.929797E-02   -5.098665E-03
    2.195805E-02    5.861389E-02
   -5.088294E-02    4.013479E-02
   -5.397421E-02   -3.543139E-02
    1.711299E-02   -5.953738E-02
    5.889144E-02    1.549825E-03
    1.091821E-02    5.716088E-02
   -5.558135E-02    2.462710E-02
   -4.162639E-02   -4.953097E-02
    3.464998E-02   -5.718078E-02
    6.411053E-02    1.358477E-02
    5.667104E-03    6.107901E-02
   -5.420912E-02    1.841271E-02
   -2.815197E-02   -4.937529E-02
    4.467149E-02   -4.098267E-02
    5.630600E-02    3.302953E-02
   -1.220578E-02    6.594790E-02
   -6.354014E-02    1.062198E-02
   -2.617956E-02   -5.253871E-02
    4.227124E-02   -3.356240E-02
    4.043112E-02    3.645906E-02
   -2.882672E-02    5.214037E-02
   -6.357894E-02   -1.187908E-02
   -1.202928E-02   -6.461291E-02
    5.276217E-02   -3.180628E-02
    4.017627E-02    3.691399E-02
   -2.678587E-02    4.193867E-02
   -4.706270E-02   -2.120845E-02
    1.034385E-02   -5.707344E-02
    6.221157E-02   -1.053878E-02
    3.332788E-02    5.353315E-02
   -3.477377E-02    4.574092E-02
   -4.582968E-02   -1.854775E-02
    1.123513E-02   -4.379773E-02
    4.844676E-02    5.718491E-03
    8.517371E-03    5.539834E-02
   -5.238406E-02    3.056386E-02
   -4.770710E-02   -3.522018E-02
    1.406333E-02   -5.041663E-02
    4.380498E-02    1.593283E-03
    2.113129E-03    4.076721E-02
