 Vespa-Simulation Mixed Metabolite Output
 This file was generated by Vespa-Simulation. You can learn about and download Vespa here:
https://github.com/vespa-mrs/vespa/tree/main/vespa

 
 Output Path/Filename = /home/stud/casperc/bhome/Project1(DeepFit)/DeepFit-data-generation/DeepFitData_TE_20_lw14_2048p
 Output Loop Values = (1,1,1)  ( Loop 1 = 10, Loop 2 = 10, Loop3 Inactive )
 Output Comment
 ---------------------------------------------------------------------------
 
 
 Experiment Information
 ---------------------------------------------------------------------------
 --- Experiment 18b0168e-f5f0-4bd4-8d52-da93aba06c60 ---
 Name: SyntheticDataSetDeepFitTE20
 Public: False
 Created: 2024-10-08T09:55:07
 Comment (abbr.): 
 PI: Casper Cappelen
 b0: 127.740000
 Peak Search PPM low/high: -15.000000 / 15.000000
 Blend tol. PPM/phase: 0.001500 / 50.000000
 Pulse seq.: 43be13ae-de9a-40a1-9a2d-c872d8bjs100 (PRESS Ideal)
 0 User static parameters: 
 22 Metabolites: 2-hydroxyglutarate, GPC-pcholine2, NAAG-truncated, alanine, choline-trimethyl, creatine, ethanolamine, gaba, glucose-beta, glutamate, glutamine, glutathione-glutamate, glutathione-glycine-cysteine, glycine, lactate, myo-inositol, n-acetylaspartate, phosphocreatine, phosphorylcholine-trimethyl, phosphorylethanolamine, pyruvate, taurine
 22 Simulations: (not shown)
 
 Metabolite Formatting Information
 ---------------------------------------------------------------------------
 Name=2-hydroxyglutarate Abbr=2HG Scale=1.0 Shift=0.0 PPM Start=-3.1207465171441986 PPM End=12.528391440425866
 Name=GPC-pcholine2 Abbr=GPC Scale=1.0 Shift=0.0 PPM Start=-3.1207465171441986 PPM End=12.528391440425866
 Name=NAAG-truncated Abbr=NAAG Scale=1.0 Shift=0.0 PPM Start=-3.1207465171441986 PPM End=12.528391440425866
 Name=alanine Abbr=Ala Scale=1.0 Shift=0.0 PPM Start=-3.1207465171441986 PPM End=12.528391440425866
 Name=choline-trimethyl Abbr=Cho Scale=1.0 Shift=0.0 PPM Start=-3.1207465171441986 PPM End=12.528391440425866
 Name=creatine Abbr=Cr Scale=1.0 Shift=0.0 PPM Start=-3.1207465171441986 PPM End=12.528391440425866
 Name=ethanolamine Abbr=ETA Scale=1.0 Shift=0.0 PPM Start=-3.1207465171441986 PPM End=12.528391440425866
 Name=gaba Abbr=GABA Scale=1.0 Shift=0.0 PPM Start=-3.1207465171441986 PPM End=12.528391440425866
 Name=glucose-beta Abbr=Glc Scale=1.0 Shift=0.0 PPM Start=-3.1207465171441986 PPM End=12.528391440425866
 Name=glutamate Abbr=Glu Scale=1.0 Shift=0.0 PPM Start=-3.1207465171441986 PPM End=12.528391440425866
 Name=glutamine Abbr=Gln Scale=1.0 Shift=0.0 PPM Start=-3.1207465171441986 PPM End=12.528391440425866
 Name=glycine Abbr=Gly Scale=1.0 Shift=0.0 PPM Start=-3.1207465171441986 PPM End=12.528391440425866
 Name=lactate Abbr=Lac Scale=1.0 Shift=0.0 PPM Start=-3.1207465171441986 PPM End=12.528391440425866
 Name=myo-inositol Abbr=mI Scale=1.0 Shift=0.0 PPM Start=-3.1207465171441986 PPM End=12.528391440425866
 Name=n-acetylaspartate Abbr=NAA Scale=1.0 Shift=0.0 PPM Start=-3.1207465171441986 PPM End=12.528391440425866
 Name=phosphocreatine Abbr=PCr Scale=1.0 Shift=0.0 PPM Start=-3.1207465171441986 PPM End=12.528391440425866
 Name=phosphorylcholine-trimethyl Abbr=PCho Scale=1.0 Shift=0.0 PPM Start=-3.1207465171441986 PPM End=12.528391440425866
 Name=phosphorylethanolamine Abbr=PE Scale=1.0 Shift=0.0 PPM Start=-3.1207465171441986 PPM End=12.528391440425866
 Name=pyruvate Abbr=Pyr Scale=1.0 Shift=0.0 PPM Start=-3.1207465171441986 PPM End=12.528391440425866
 Name=taurine Abbr=Tau Scale=1.0 Shift=0.0 PPM Start=-3.1207465171441986 PPM End=12.528391440425866
 Name=glutathione-glutamate+glutathione-glycine-cysteine Abbr=GSH Scale=1.0 Shift=0.0 PPM Start=-3.1207565171441987 PPM End=12.528
   Mixture of [metab*scale] = glutathione-glutamate*1.000000 + glutathione-glycine-cysteine*1.000000
 
 ===========================================================================
 This LCModel format RAW file was created using the 
 Vespa-Simulation spectral simulation program using 
 the following settings and parameters 
 
 Sweep Width = 2000.0 Hz 
 Vector Size = 2048 points 
 Apodization = 14.0 Hz Lorentzian broadening
 B0 Field    = 127.74 MHz 
 Ref Singlet = False
  
 This data has been FFTd to be in the FREQUENCY domain
 
 $NMID ID='Ala'
 FMTDAT='(2E16.6)'
 VOLUME=1.0
 TRAMP=1.0
 $END
    1.937126E+00    3.721844E+00
    1.940272E+00    3.743918E+00
    1.943496E+00    3.766282E+00
    1.946801E+00    3.788943E+00
    1.950191E+00    3.811909E+00
    1.953668E+00    3.835185E+00
    1.957236E+00    3.858780E+00
    1.960897E+00    3.882700E+00
    1.964655E+00    3.906955E+00
    1.968514E+00    3.931552E+00
    1.972477E+00    3.956499E+00
    1.976550E+00    3.981806E+00
    1.980735E+00    4.007480E+00
    1.985036E+00    4.033531E+00
    1.989457E+00    4.059969E+00
    1.994003E+00    4.086803E+00
    1.998679E+00    4.114045E+00
    2.003489E+00    4.141705E+00
    2.008438E+00    4.169795E+00
    2.013532E+00    4.198326E+00
    2.018778E+00    4.227312E+00
    2.024180E+00    4.256764E+00
    2.029746E+00    4.286696E+00
    2.035484E+00    4.317123E+00
    2.041401E+00    4.348057E+00
    2.047505E+00    4.379512E+00
    2.053804E+00    4.411504E+00
    2.060307E+00    4.444046E+00
    2.067022E+00    4.477156E+00
    2.073957E+00    4.510849E+00
    2.081122E+00    4.545145E+00
    2.088528E+00    4.580061E+00
    2.096186E+00    4.615617E+00
    2.104107E+00    4.651833E+00
    2.112304E+00    4.688727E+00
    2.120790E+00    4.726323E+00
    2.129577E+00    4.764643E+00
    2.138680E+00    4.803710E+00
    2.148114E+00    4.843550E+00
    2.157896E+00    4.884189E+00
    2.168044E+00    4.925655E+00
    2.178578E+00    4.967975E+00
    2.189520E+00    5.011176E+00
    2.200888E+00    5.055289E+00
    2.212705E+00    5.100343E+00
    2.224993E+00    5.146372E+00
    2.237776E+00    5.193413E+00
    2.251080E+00    5.241503E+00
    2.264935E+00    5.290683E+00
    2.279373E+00    5.340994E+00
    2.294431E+00    5.392477E+00
    2.310143E+00    5.445176E+00
    2.326549E+00    5.499136E+00
    2.343690E+00    5.554406E+00
    2.361608E+00    5.611035E+00
    2.380350E+00    5.669078E+00
    2.399968E+00    5.728592E+00
    2.420516E+00    5.789636E+00
    2.442052E+00    5.852273E+00
    2.464642E+00    5.916569E+00
    2.488355E+00    5.982596E+00
    2.513266E+00    6.050425E+00
    2.539458E+00    6.120135E+00
    2.567020E+00    6.191805E+00
    2.596050E+00    6.265521E+00
    2.626653E+00    6.341370E+00
    2.658940E+00    6.419446E+00
    2.693038E+00    6.499849E+00
    2.729080E+00    6.582684E+00
    2.767216E+00    6.668061E+00
    2.807610E+00    6.756098E+00
    2.850442E+00    6.846916E+00
    2.895913E+00    6.940642E+00
    2.944240E+00    7.037409E+00
    2.995665E+00    7.137355E+00
    3.050452E+00    7.240624E+00
    3.108896E+00    7.347367E+00
    3.171325E+00    7.457740E+00
    3.238102E+00    7.571903E+00
    3.309633E+00    7.690018E+00
    3.386370E+00    7.812249E+00
    3.468819E+00    7.938760E+00
    3.557544E+00    8.069710E+00
    3.653177E+00    8.205253E+00
    3.756430E+00    8.345531E+00
    3.868104E+00    8.490666E+00
    3.989101E+00    8.640755E+00
    4.120443E+00    8.795851E+00
    4.263282E+00    8.955951E+00
    4.418917E+00    9.120974E+00
    4.588818E+00    9.290732E+00
    4.774641E+00    9.464894E+00
    4.978247E+00    9.642939E+00
    5.201726E+00    9.824093E+00
    5.447400E+00    1.000724E+01
    5.717824E+00    1.019081E+01
    6.015754E+00    1.037266E+01
    6.344083E+00    1.054987E+01
    6.705703E+00    1.071856E+01
    7.103257E+00    1.087362E+01
    7.538735E+00    1.100853E+01
    8.012823E+00    1.111513E+01
    8.523953E+00    1.118374E+01
    9.067034E+00    1.120375E+01
    9.632068E+00    1.116514E+01
    1.020331E+01    1.106151E+01
    1.076036E+01    1.089467E+01
    1.128342E+01    1.067958E+01
    1.176393E+01    1.044573E+01
    1.221783E+01    1.022869E+01
    1.269127E+01    1.004911E+01
    1.324684E+01    9.887539E+00
    1.392985E+01    9.674060E+00
    1.473129E+01    9.306188E+00
    1.556918E+01    8.691213E+00
    1.630125E+01    7.797028E+00
    1.677295E+01    6.690344E+00
    1.689071E+01    5.535811E+00
    1.668538E+01    4.537269E+00
    1.631723E+01    3.840404E+00
    1.600675E+01    3.455982E+00
    1.593154E+01    3.252310E+00
    1.614660E+01    3.015332E+00
    1.655967E+01    2.542461E+00
    1.696879E+01    1.733144E+00
    1.715227E+01    6.380328E-01
    1.697270E+01   -5.653617E-01
    1.643456E+01   -1.662430E+00
    1.566317E+01   -2.499456E+00
    1.483121E+01   -3.033502E+00
    1.408369E+01   -3.323293E+00
    1.349250E+01   -3.483718E+00
    1.304822E+01   -3.629960E+00
    1.268543E+01   -3.832947E+00
    1.232635E+01   -4.103699E+00
    1.191764E+01   -4.409265E+00
    1.144306E+01   -4.702926E+00
    1.091453E+01   -4.947480E+00
    1.035638E+01   -5.123583E+00
    9.793202E+00   -5.227450E+00
    9.244201E+00   -5.264966E+00
    8.721987E+00   -5.246408E+00
    8.233561E+00   -5.183026E+00
    7.781844E+00   -5.085262E+00
    7.367086E+00   -4.962033E+00
    6.987938E+00   -4.820594E+00
    6.642183E+00   -4.666677E+00
    6.327209E+00   -4.504717E+00
    6.040303E+00   -4.338098E+00
    5.778818E+00   -4.169373E+00
    5.540258E+00   -4.000449E+00
    5.322328E+00   -3.832734E+00
    5.122937E+00   -3.667254E+00
    4.940202E+00   -3.504738E+00
    4.772433E+00   -3.345690E+00
    4.618127E+00   -3.190439E+00
    4.475947E+00   -3.039184E+00
    4.344711E+00   -2.892028E+00
    4.223368E+00   -2.749005E+00
    4.110987E+00   -2.610097E+00
    4.006738E+00   -2.475250E+00
    3.909878E+00   -2.344383E+00
    3.819745E+00   -2.217393E+00
    3.735744E+00   -2.094164E+00
    3.657345E+00   -1.974566E+00
    3.584075E+00   -1.858467E+00
    3.515508E+00   -1.745733E+00
    3.451262E+00   -1.636230E+00
    3.390992E+00   -1.529827E+00
    3.334384E+00   -1.426397E+00
    3.281155E+00   -1.325814E+00
    3.231047E+00   -1.227952E+00
