 Vespa-Simulation Mixed Metabolite Output
 This file was generated by Vespa-Simulation. You can learn about and download Vespa here:
https://github.com/vespa-mrs/vespa/tree/main/vespa

 
 Output Path/Filename = /home/stud/casperc/bhome/Project1(DeepFit)/DeepFit-data-generation/DeepFitData_TE_20_lw14_2048p
 Output Loop Values = (1,1,1)  ( Loop 1 = 10, Loop 2 = 10, Loop3 Inactive )
 Output Comment
 ---------------------------------------------------------------------------
 
 
 Experiment Information
 ---------------------------------------------------------------------------
 --- Experiment 18b0168e-f5f0-4bd4-8d52-da93aba06c60 ---
 Name: SyntheticDataSetDeepFitTE20
 Public: False
 Created: 2024-10-08T09:55:07
 Comment (abbr.): 
 PI: Casper Cappelen
 b0: 127.740000
 Peak Search PPM low/high: -15.000000 / 15.000000
 Blend tol. PPM/phase: 0.001500 / 50.000000
 Pulse seq.: 43be13ae-de9a-40a1-9a2d-c872d8bjs100 (PRESS Ideal)
 0 User static parameters: 
 22 Metabolites: 2-hydroxyglutarate, GPC-pcholine2, NAAG-truncated, alanine, choline-trimethyl, creatine, ethanolamine, gaba, glucose-beta, glutamate, glutamine, glutathione-glutamate, glutathione-glycine-cysteine, glycine, lactate, myo-inositol, n-acetylaspartate, phosphocreatine, phosphorylcholine-trimethyl, phosphorylethanolamine, pyruvate, taurine
 22 Simulations: (not shown)
 
 Metabolite Formatting Information
 ---------------------------------------------------------------------------
 Name=2-hydroxyglutarate Abbr=2HG Scale=1.0 Shift=0.0 PPM Start=-3.1207465171441986 PPM End=12.528391440425866
 Name=GPC-pcholine2 Abbr=GPC Scale=1.0 Shift=0.0 PPM Start=-3.1207465171441986 PPM End=12.528391440425866
 Name=NAAG-truncated Abbr=NAAG Scale=1.0 Shift=0.0 PPM Start=-3.1207465171441986 PPM End=12.528391440425866
 Name=alanine Abbr=Ala Scale=1.0 Shift=0.0 PPM Start=-3.1207465171441986 PPM End=12.528391440425866
 Name=choline-trimethyl Abbr=Cho Scale=1.0 Shift=0.0 PPM Start=-3.1207465171441986 PPM End=12.528391440425866
 Name=creatine Abbr=Cr Scale=1.0 Shift=0.0 PPM Start=-3.1207465171441986 PPM End=12.528391440425866
 Name=ethanolamine Abbr=ETA Scale=1.0 Shift=0.0 PPM Start=-3.1207465171441986 PPM End=12.528391440425866
 Name=gaba Abbr=GABA Scale=1.0 Shift=0.0 PPM Start=-3.1207465171441986 PPM End=12.528391440425866
 Name=glucose-beta Abbr=Glc Scale=1.0 Shift=0.0 PPM Start=-3.1207465171441986 PPM End=12.528391440425866
 Name=glutamate Abbr=Glu Scale=1.0 Shift=0.0 PPM Start=-3.1207465171441986 PPM End=12.528391440425866
 Name=glutamine Abbr=Gln Scale=1.0 Shift=0.0 PPM Start=-3.1207465171441986 PPM End=12.528391440425866
 Name=glycine Abbr=Gly Scale=1.0 Shift=0.0 PPM Start=-3.1207465171441986 PPM End=12.528391440425866
 Name=lactate Abbr=Lac Scale=1.0 Shift=0.0 PPM Start=-3.1207465171441986 PPM End=12.528391440425866
 Name=myo-inositol Abbr=mI Scale=1.0 Shift=0.0 PPM Start=-3.1207465171441986 PPM End=12.528391440425866
 Name=n-acetylaspartate Abbr=NAA Scale=1.0 Shift=0.0 PPM Start=-3.1207465171441986 PPM End=12.528391440425866
 Name=phosphocreatine Abbr=PCr Scale=1.0 Shift=0.0 PPM Start=-3.1207465171441986 PPM End=12.528391440425866
 Name=phosphorylcholine-trimethyl Abbr=PCho Scale=1.0 Shift=0.0 PPM Start=-3.1207465171441986 PPM End=12.528391440425866
 Name=phosphorylethanolamine Abbr=PE Scale=1.0 Shift=0.0 PPM Start=-3.1207465171441986 PPM End=12.528391440425866
 Name=pyruvate Abbr=Pyr Scale=1.0 Shift=0.0 PPM Start=-3.1207465171441986 PPM End=12.528391440425866
 Name=taurine Abbr=Tau Scale=1.0 Shift=0.0 PPM Start=-3.1207465171441986 PPM End=12.528391440425866
 Name=glutathione-glutamate+glutathione-glycine-cysteine Abbr=GSH Scale=1.0 Shift=0.0 PPM Start=-3.1207565171441987 PPM End=12.528
   Mixture of [metab*scale] = glutathione-glutamate*1.000000 + glutathione-glycine-cysteine*1.000000
 
 ===========================================================================
 This LCModel format RAW file was created using the 
 Vespa-Simulation spectral simulation program using 
 the following settings and parameters 
 
 Sweep Width = 2000.0 Hz 
 Vector Size = 2048 points 
 Apodization = 14.0 Hz Lorentzian broadening
 B0 Field    = 127.74 MHz 
 Ref Singlet = False
  
 $NMID ID='Cho'
 FMTDAT='(2E16.6)'
 VOLUME=1.0
 TRAMP=1.0
 $END
    8.995899E+00    3.002776E-09
    7.223249E+00    5.026781E+00
    2.991000E+00    8.072481E+00
   -2.109155E+00    8.153086E+00
   -6.249335E+00    5.367910E+00
   -8.017340E+00    8.181213E-01
   -6.894596E+00   -3.823029E+00
   -3.399708E+00   -6.922212E+00
    1.138228E+00   -7.457780E+00
    5.081139E+00   -5.352116E+00
    7.070447E+00   -1.458177E+00
    6.491878E+00    2.779967E+00
    3.659152E+00    5.859605E+00
   -3.361461E-01    6.749474E+00
   -4.041308E+00    5.231502E+00
   -6.168064E+00    1.942365E+00
   -6.037807E+00   -1.886970E+00
   -3.793507E+00   -4.888816E+00
   -3.142197E-01   -6.045007E+00
    3.125444E+00   -5.029219E+00
    5.319614E+00   -2.291658E+00
    5.551687E+00    1.132395E+00
    3.824782E+00    4.011281E+00
    8.296169E-01    5.357836E+00
   -2.327631E+00    4.765413E+00
   -4.531583E+00    2.525605E+00
   -5.049633E+00   -5.042275E-01
   -3.772632E+00   -3.226355E+00
   -1.226317E+00   -4.698421E+00
    1.640614E+00   -4.457585E+00
    3.807929E+00   -2.662295E+00
    4.544935E+00   -9.867523E-03
    3.654604E+00    2.531581E+00
    1.519772E+00    4.074583E+00
   -1.056476E+00    4.120611E+00
   -3.150589E+00    2.718119E+00
   -4.048304E+00    4.220021E-01
   -3.486107E+00   -1.923166E+00
   -1.724415E+00   -3.491904E+00
    5.665912E-01   -3.767089E+00
    2.559709E+00   -2.707969E+00
    3.568191E+00   -7.439416E-01
    3.280501E+00    1.396363E+00
    1.853618E+00    2.954054E+00
   -1.622853E-01    3.407418E+00
   -2.034152E+00    2.645036E+00
   -3.111023E+00    9.870994E-01
   -3.049277E+00   -9.456922E-01
   -1.919763E+00   -2.463002E+00
   -1.651843E-01   -3.050087E+00
    1.571565E+00   -2.541089E+00
    2.681517E+00   -1.162090E+00
    2.802171E+00    5.652536E-01
    1.933943E+00    2.019446E+00
    4.243514E-01    2.701868E+00
   -1.168882E+00    2.406314E+00
   -2.282908E+00    1.278825E+00
   -2.547344E+00   -2.487787E-01
   -1.906151E+00   -1.622966E+00
   -6.235571E-01   -2.368000E+00
    8.224016E-01   -2.249539E+00
    1.917121E+00   -1.346532E+00
    2.291474E+00   -9.950096E-03
    1.845242E+00    1.272298E+00
    7.705739E-01    2.052415E+00
   -5.280138E-01    2.078296E+00
   -1.585080E+00    1.373516E+00
   -2.039953E+00    2.170975E-01
   -1.759029E+00   -9.654530E-01
   -8.728385E-01   -1.757857E+00
    2.813930E-01   -1.898916E+00
    1.286849E+00   -1.367280E+00
    1.797010E+00   -3.787625E-01
    1.654293E+00    6.999207E-01
    9.370499E-01    1.486171E+00
   -7.804822E-02    1.716656E+00
   -1.021721E+00    1.334582E+00
   -1.565884E+00    5.005852E-01
   -1.536787E+00   -4.729824E-01
   -9.694946E-01   -1.238316E+00
   -8.651827E-02   -1.535783E+00
    7.885780E-01   -1.281275E+00
    1.348916E+00   -5.880398E-01
    1.411457E+00    2.815107E-01
    9.758423E-01    1.014567E+00
    2.165767E-01    1.359689E+00
   -5.857771E-01    1.212555E+00
   -1.147683E+00    6.462006E-01
   -1.282378E+00   -1.224295E-01
   -9.610850E-01   -8.147328E-01
   -3.163719E-01   -1.191004E+00
    4.113832E-01   -1.132890E+00
    9.631790E-01   -6.796374E-01
    1.152928E+00   -7.493359E-03
    9.297570E-01    6.380765E-01
    3.899130E-01    1.031673E+00
   -2.633578E-01    1.046043E+00
   -7.958176E-01    6.926096E-01
   -1.025806E+00    1.114364E-01
   -8.857487E-01   -4.836326E-01
   -4.408636E-01   -8.830915E-01
    1.394451E-01   -9.552194E-01
    6.455762E-01   -6.889363E-01
    9.031359E-01   -1.923930E-01
    8.324917E-01    3.501065E-01
    4.727236E-01    7.461258E-01
   -3.734955E-02    8.630569E-01
   -5.121420E-01    6.719633E-01
   -7.865282E-01    2.533104E-01
   -7.729138E-01   -2.360348E-01
   -4.885982E-01   -6.212751E-01
   -4.514336E-02   -7.716918E-01
    3.948730E-01   -6.446976E-01
    6.771416E-01   -2.969522E-01
    7.094692E-01    1.399108E-01
    4.913630E-01    5.086614E-01
    1.102934E-01    6.828246E-01
   -2.929242E-01    6.097494E-01
   -5.757798E-01    3.258294E-01
   -6.442264E-01   -6.010267E-02
   -4.835809E-01   -4.081295E-01
   -1.601880E-01   -5.977719E-01
    2.053544E-01   -5.693413E-01
    4.829044E-01   -3.423093E-01
    5.788717E-01   -5.027272E-03
    4.674863E-01    3.193468E-01
    1.968643E-01    5.175059E-01
   -1.310712E-01    5.253921E-01
   -3.987186E-01    3.485240E-01
   -5.147561E-01    5.705787E-02
   -4.450805E-01   -2.417599E-01
   -2.222193E-01   -4.427030E-01
    6.892948E-02   -4.795048E-01
    3.231978E-01   -3.464000E-01
    4.529456E-01   -9.751184E-02
    4.180582E-01    1.747551E-01
    2.379566E-01    3.738171E-01
   -1.779051E-02    4.329968E-01
   -2.561640E-01    3.376314E-01
   -3.942337E-01    1.279189E-01
   -3.879115E-01   -1.175474E-01
   -2.457127E-01   -3.110518E-01
   -2.347343E-02   -3.869417E-01
    1.973114E-01   -3.237103E-01
    3.392037E-01   -1.496383E-01
    3.558677E-01    6.937139E-02
    2.469005E-01    2.544775E-01
    5.602989E-02    3.421894E-01
   -1.461772E-01    3.059710E-01
   -2.882540E-01    1.639427E-01
   -3.229577E-01   -2.942754E-02
   -2.428061E-01   -2.040151E-01
   -8.093146E-02   -2.993930E-01
    1.022812E-01   -2.855260E-01
    2.415958E-01   -1.720508E-01
    2.900319E-01   -3.144504E-03
    2.345580E-01    1.594890E-01
    9.918246E-02    2.590424E-01
   -6.509058E-02    2.633295E-01
   -1.993325E-01    1.750182E-01
   -2.577630E-01    2.913459E-02
   -2.231722E-01   -1.206005E-01
   -1.117654E-01   -2.214650E-01
    3.399946E-02   -2.401934E-01
    1.614607E-01   -1.738020E-01
    2.266825E-01   -4.931295E-02
    2.094992E-01    8.702991E-02
    1.195416E-01    1.868793E-01
   -8.438227E-03    2.167741E-01
   -1.278603E-01    1.692806E-01
   -1.971851E-01    6.445207E-02
   -1.942723E-01   -5.841238E-02
   -1.233038E-01   -1.554020E-01
   -1.217508E-02   -1.936074E-01
