 Vespa-Simulation Mixed Metabolite Output
 This file was generated by Vespa-Simulation. You can learn about and download Vespa here:
https://github.com/vespa-mrs/vespa/tree/main/vespa

 
 Output Path/Filename = /home/stud/casperc/bhome/Project1(DeepFit)/DeepFit-data-generation/DeepFitData_TE_20_lw14_2048p
 Output Loop Values = (1,1,1)  ( Loop 1 = 10, Loop 2 = 10, Loop3 Inactive )
 Output Comment
 ---------------------------------------------------------------------------
 
 
 Experiment Information
 ---------------------------------------------------------------------------
 --- Experiment 18b0168e-f5f0-4bd4-8d52-da93aba06c60 ---
 Name: SyntheticDataSetDeepFitTE20
 Public: False
 Created: 2024-10-08T09:55:07
 Comment (abbr.): 
 PI: Casper Cappelen
 b0: 127.740000
 Peak Search PPM low/high: -15.000000 / 15.000000
 Blend tol. PPM/phase: 0.001500 / 50.000000
 Pulse seq.: 43be13ae-de9a-40a1-9a2d-c872d8bjs100 (PRESS Ideal)
 0 User static parameters: 
 22 Metabolites: 2-hydroxyglutarate, GPC-pcholine2, NAAG-truncated, alanine, choline-trimethyl, creatine, ethanolamine, gaba, glucose-beta, glutamate, glutamine, glutathione-glutamate, glutathione-glycine-cysteine, glycine, lactate, myo-inositol, n-acetylaspartate, phosphocreatine, phosphorylcholine-trimethyl, phosphorylethanolamine, pyruvate, taurine
 22 Simulations: (not shown)
 
 Metabolite Formatting Information
 ---------------------------------------------------------------------------
 Name=2-hydroxyglutarate Abbr=2HG Scale=1.0 Shift=0.0 PPM Start=-3.1207465171441986 PPM End=12.528391440425866
 Name=GPC-pcholine2 Abbr=GPC Scale=1.0 Shift=0.0 PPM Start=-3.1207465171441986 PPM End=12.528391440425866
 Name=NAAG-truncated Abbr=NAAG Scale=1.0 Shift=0.0 PPM Start=-3.1207465171441986 PPM End=12.528391440425866
 Name=alanine Abbr=Ala Scale=1.0 Shift=0.0 PPM Start=-3.1207465171441986 PPM End=12.528391440425866
 Name=choline-trimethyl Abbr=Cho Scale=1.0 Shift=0.0 PPM Start=-3.1207465171441986 PPM End=12.528391440425866
 Name=creatine Abbr=Cr Scale=1.0 Shift=0.0 PPM Start=-3.1207465171441986 PPM End=12.528391440425866
 Name=ethanolamine Abbr=ETA Scale=1.0 Shift=0.0 PPM Start=-3.1207465171441986 PPM End=12.528391440425866
 Name=gaba Abbr=GABA Scale=1.0 Shift=0.0 PPM Start=-3.1207465171441986 PPM End=12.528391440425866
 Name=glucose-beta Abbr=Glc Scale=1.0 Shift=0.0 PPM Start=-3.1207465171441986 PPM End=12.528391440425866
 Name=glutamate Abbr=Glu Scale=1.0 Shift=0.0 PPM Start=-3.1207465171441986 PPM End=12.528391440425866
 Name=glutamine Abbr=Gln Scale=1.0 Shift=0.0 PPM Start=-3.1207465171441986 PPM End=12.528391440425866
 Name=glycine Abbr=Gly Scale=1.0 Shift=0.0 PPM Start=-3.1207465171441986 PPM End=12.528391440425866
 Name=lactate Abbr=Lac Scale=1.0 Shift=0.0 PPM Start=-3.1207465171441986 PPM End=12.528391440425866
 Name=myo-inositol Abbr=mI Scale=1.0 Shift=0.0 PPM Start=-3.1207465171441986 PPM End=12.528391440425866
 Name=n-acetylaspartate Abbr=NAA Scale=1.0 Shift=0.0 PPM Start=-3.1207465171441986 PPM End=12.528391440425866
 Name=phosphocreatine Abbr=PCr Scale=1.0 Shift=0.0 PPM Start=-3.1207465171441986 PPM End=12.528391440425866
 Name=phosphorylcholine-trimethyl Abbr=PCho Scale=1.0 Shift=0.0 PPM Start=-3.1207465171441986 PPM End=12.528391440425866
 Name=phosphorylethanolamine Abbr=PE Scale=1.0 Shift=0.0 PPM Start=-3.1207465171441986 PPM End=12.528391440425866
 Name=pyruvate Abbr=Pyr Scale=1.0 Shift=0.0 PPM Start=-3.1207465171441986 PPM End=12.528391440425866
 Name=taurine Abbr=Tau Scale=1.0 Shift=0.0 PPM Start=-3.1207465171441986 PPM End=12.528391440425866
 Name=glutathione-glutamate+glutathione-glycine-cysteine Abbr=GSH Scale=1.0 Shift=0.0 PPM Start=-3.1207565171441987 PPM End=12.528
   Mixture of [metab*scale] = glutathione-glutamate*1.000000 + glutathione-glycine-cysteine*1.000000
 
 ===========================================================================
 This LCModel format RAW file was created using the 
 Vespa-Simulation spectral simulation program using 
 the following settings and parameters 
 
 Sweep Width = 2000.0 Hz 
 Vector Size = 2048 points 
 Apodization = 14.0 Hz Lorentzian broadening
 B0 Field    = 127.74 MHz 
 Ref Singlet = False
  
 This data has been FFTd to be in the FREQUENCY domain
 
 $NMID ID='Cho'
 FMTDAT='(2E16.6)'
 VOLUME=1.0
 TRAMP=1.0
 $END
    5.049131E+00    1.431841E+01
    5.054548E+00    1.439552E+01
    5.060051E+00    1.447338E+01
    5.065642E+00    1.455202E+01
    5.071322E+00    1.463143E+01
    5.077088E+00    1.471164E+01
    5.082942E+00    1.479265E+01
    5.088885E+00    1.487448E+01
    5.094918E+00    1.495715E+01
    5.101048E+00    1.504067E+01
    5.107280E+00    1.512506E+01
    5.113621E+00    1.521032E+01
    5.120077E+00    1.529648E+01
    5.126652E+00    1.538353E+01
    5.133348E+00    1.547149E+01
    5.140162E+00    1.556036E+01
    5.147089E+00    1.565016E+01
    5.154124E+00    1.574091E+01
    5.161264E+00    1.583261E+01
    5.168507E+00    1.592530E+01
    5.175857E+00    1.601900E+01
    5.183317E+00    1.611373E+01
    5.190894E+00    1.620951E+01
    5.198594E+00    1.630635E+01
    5.206421E+00    1.640429E+01
    5.214380E+00    1.650333E+01
    5.222477E+00    1.660350E+01
    5.230719E+00    1.670482E+01
    5.239112E+00    1.680731E+01
    5.247662E+00    1.691098E+01
    5.256373E+00    1.701585E+01
    5.265250E+00    1.712193E+01
    5.274294E+00    1.722926E+01
    5.283506E+00    1.733785E+01
    5.292889E+00    1.744772E+01
    5.302444E+00    1.755889E+01
    5.312177E+00    1.767140E+01
    5.322091E+00    1.778527E+01
    5.332191E+00    1.790052E+01
    5.342480E+00    1.801717E+01
    5.352964E+00    1.813526E+01
    5.363646E+00    1.825482E+01
    5.374532E+00    1.837587E+01
    5.385629E+00    1.849844E+01
    5.396943E+00    1.862256E+01
    5.408482E+00    1.874826E+01
    5.420252E+00    1.887557E+01
    5.432260E+00    1.900453E+01
    5.444511E+00    1.913515E+01
    5.457008E+00    1.926747E+01
    5.469756E+00    1.940154E+01
    5.482761E+00    1.953737E+01
    5.496028E+00    1.967502E+01
    5.509568E+00    1.981452E+01
    5.523387E+00    1.995591E+01
    5.537494E+00    2.009923E+01
    5.551895E+00    2.024451E+01
    5.566599E+00    2.039180E+01
    5.581613E+00    2.054115E+01
    5.596949E+00    2.069260E+01
    5.612618E+00    2.084620E+01
    5.628635E+00    2.100199E+01
    5.645010E+00    2.116002E+01
    5.661753E+00    2.132033E+01
    5.678874E+00    2.148297E+01
    5.696380E+00    2.164799E+01
    5.714283E+00    2.181545E+01
    5.732595E+00    2.198541E+01
    5.751328E+00    2.215792E+01
    5.770496E+00    2.233303E+01
    5.790111E+00    2.251082E+01
    5.810188E+00    2.269134E+01
    5.830738E+00    2.287465E+01
    5.851778E+00    2.306083E+01
    5.873324E+00    2.324995E+01
    5.895392E+00    2.344207E+01
    5.918004E+00    2.363727E+01
    5.941177E+00    2.383562E+01
    5.964933E+00    2.403720E+01
    5.989289E+00    2.424209E+01
    6.014267E+00    2.445036E+01
    6.039883E+00    2.466211E+01
    6.066160E+00    2.487742E+01
    6.093118E+00    2.509639E+01
    6.120782E+00    2.531910E+01
    6.149177E+00    2.554567E+01
    6.178328E+00    2.577618E+01
    6.208263E+00    2.601075E+01
    6.239009E+00    2.624948E+01
    6.270596E+00    2.649249E+01
    6.303056E+00    2.673990E+01
    6.336423E+00    2.699182E+01
    6.370733E+00    2.724839E+01
    6.406026E+00    2.750974E+01
    6.442341E+00    2.777598E+01
    6.479717E+00    2.804727E+01
    6.518194E+00    2.832375E+01
    6.557813E+00    2.860556E+01
    6.598614E+00    2.889285E+01
    6.640644E+00    2.918580E+01
    6.683950E+00    2.948458E+01
    6.728585E+00    2.978936E+01
    6.774606E+00    3.010034E+01
    6.822071E+00    3.041769E+01
    6.871047E+00    3.074163E+01
    6.921601E+00    3.107236E+01
    6.973803E+00    3.141009E+01
    7.027727E+00    3.175504E+01
    7.083446E+00    3.210744E+01
    7.141035E+00    3.246754E+01
    7.200575E+00    3.283558E+01
    7.262151E+00    3.321185E+01
    7.325858E+00    3.359662E+01
    7.391796E+00    3.399019E+01
    7.460073E+00    3.439285E+01
    7.530805E+00    3.480494E+01
    7.604111E+00    3.522678E+01
    7.680118E+00    3.565873E+01
    7.758959E+00    3.610113E+01
    7.840777E+00    3.655439E+01
    7.925722E+00    3.701890E+01
    8.013953E+00    3.749508E+01
    8.105641E+00    3.798337E+01
    8.200968E+00    3.848425E+01
    8.300128E+00    3.899821E+01
    8.403329E+00    3.952575E+01
    8.510793E+00    4.006743E+01
    8.622758E+00    4.062382E+01
    8.739479E+00    4.119552E+01
    8.861229E+00    4.178316E+01
    8.988301E+00    4.238742E+01
    9.121008E+00    4.300901E+01
    9.259687E+00    4.364867E+01
    9.404701E+00    4.430719E+01
    9.556437E+00    4.498542E+01
    9.715317E+00    4.568423E+01
    9.881794E+00    4.640458E+01
    1.005636E+01    4.714747E+01
    1.023953E+01    4.791394E+01
    1.043190E+01    4.870513E+01
    1.063407E+01    4.952224E+01
    1.084673E+01    5.036654E+01
    1.107060E+01    5.123940E+01
    1.130649E+01    5.214227E+01
    1.155526E+01    5.307668E+01
    1.181787E+01    5.404430E+01
    1.209537E+01    5.504689E+01
    1.238888E+01    5.608634E+01
    1.269965E+01    5.716468E+01
    1.302905E+01    5.828407E+01
    1.337859E+01    5.944686E+01
    1.374994E+01    6.065556E+01
    1.414492E+01    6.191286E+01
    1.456559E+01    6.322166E+01
    1.501418E+01    6.458511E+01
    1.549319E+01    6.600657E+01
    1.600542E+01    6.748972E+01
    1.655398E+01    6.903850E+01
    1.714234E+01    7.065720E+01
    1.777441E+01    7.235047E+01
    1.845458E+01    7.412334E+01
    1.918778E+01    7.598129E+01
    1.997961E+01    7.793026E+01
    2.083638E+01    7.997674E+01
    2.176528E+01    8.212778E+01
    2.277451E+01    8.439108E+01
    2.387343E+01    8.677501E+01
    2.507279E+01    8.928873E+01
    2.638497E+01    9.194221E+01
    2.782424E+01    9.474631E+01
    2.940717E+01    9.771286E+01
    3.115305E+01    1.008547E+02
