 Vespa-Simulation Mixed Metabolite Output
 This file was generated by Vespa-Simulation. You can learn about and download Vespa here:
https://github.com/vespa-mrs/vespa/tree/main/vespa

 
 Output Path/Filename = /home/stud/casperc/bhome/Project1(DeepFit)/DeepFit-data-generation/DeepFitData_TE_20_lw14_2048p
 Output Loop Values = (1,1,1)  ( Loop 1 = 10, Loop 2 = 10, Loop3 Inactive )
 Output Comment
 ---------------------------------------------------------------------------
 
 
 Experiment Information
 ---------------------------------------------------------------------------
 --- Experiment 18b0168e-f5f0-4bd4-8d52-da93aba06c60 ---
 Name: SyntheticDataSetDeepFitTE20
 Public: False
 Created: 2024-10-08T09:55:07
 Comment (abbr.): 
 PI: Casper Cappelen
 b0: 127.740000
 Peak Search PPM low/high: -15.000000 / 15.000000
 Blend tol. PPM/phase: 0.001500 / 50.000000
 Pulse seq.: 43be13ae-de9a-40a1-9a2d-c872d8bjs100 (PRESS Ideal)
 0 User static parameters: 
 22 Metabolites: 2-hydroxyglutarate, GPC-pcholine2, NAAG-truncated, alanine, choline-trimethyl, creatine, ethanolamine, gaba, glucose-beta, glutamate, glutamine, glutathione-glutamate, glutathione-glycine-cysteine, glycine, lactate, myo-inositol, n-acetylaspartate, phosphocreatine, phosphorylcholine-trimethyl, phosphorylethanolamine, pyruvate, taurine
 22 Simulations: (not shown)
 
 Metabolite Formatting Information
 ---------------------------------------------------------------------------
 Name=2-hydroxyglutarate Abbr=2HG Scale=1.0 Shift=0.0 PPM Start=-3.1207465171441986 PPM End=12.528391440425866
 Name=GPC-pcholine2 Abbr=GPC Scale=1.0 Shift=0.0 PPM Start=-3.1207465171441986 PPM End=12.528391440425866
 Name=NAAG-truncated Abbr=NAAG Scale=1.0 Shift=0.0 PPM Start=-3.1207465171441986 PPM End=12.528391440425866
 Name=alanine Abbr=Ala Scale=1.0 Shift=0.0 PPM Start=-3.1207465171441986 PPM End=12.528391440425866
 Name=choline-trimethyl Abbr=Cho Scale=1.0 Shift=0.0 PPM Start=-3.1207465171441986 PPM End=12.528391440425866
 Name=creatine Abbr=Cr Scale=1.0 Shift=0.0 PPM Start=-3.1207465171441986 PPM End=12.528391440425866
 Name=ethanolamine Abbr=ETA Scale=1.0 Shift=0.0 PPM Start=-3.1207465171441986 PPM End=12.528391440425866
 Name=gaba Abbr=GABA Scale=1.0 Shift=0.0 PPM Start=-3.1207465171441986 PPM End=12.528391440425866
 Name=glucose-beta Abbr=Glc Scale=1.0 Shift=0.0 PPM Start=-3.1207465171441986 PPM End=12.528391440425866
 Name=glutamate Abbr=Glu Scale=1.0 Shift=0.0 PPM Start=-3.1207465171441986 PPM End=12.528391440425866
 Name=glutamine Abbr=Gln Scale=1.0 Shift=0.0 PPM Start=-3.1207465171441986 PPM End=12.528391440425866
 Name=glycine Abbr=Gly Scale=1.0 Shift=0.0 PPM Start=-3.1207465171441986 PPM End=12.528391440425866
 Name=lactate Abbr=Lac Scale=1.0 Shift=0.0 PPM Start=-3.1207465171441986 PPM End=12.528391440425866
 Name=myo-inositol Abbr=mI Scale=1.0 Shift=0.0 PPM Start=-3.1207465171441986 PPM End=12.528391440425866
 Name=n-acetylaspartate Abbr=NAA Scale=1.0 Shift=0.0 PPM Start=-3.1207465171441986 PPM End=12.528391440425866
 Name=phosphocreatine Abbr=PCr Scale=1.0 Shift=0.0 PPM Start=-3.1207465171441986 PPM End=12.528391440425866
 Name=phosphorylcholine-trimethyl Abbr=PCho Scale=1.0 Shift=0.0 PPM Start=-3.1207465171441986 PPM End=12.528391440425866
 Name=phosphorylethanolamine Abbr=PE Scale=1.0 Shift=0.0 PPM Start=-3.1207465171441986 PPM End=12.528391440425866
 Name=pyruvate Abbr=Pyr Scale=1.0 Shift=0.0 PPM Start=-3.1207465171441986 PPM End=12.528391440425866
 Name=taurine Abbr=Tau Scale=1.0 Shift=0.0 PPM Start=-3.1207465171441986 PPM End=12.528391440425866
 Name=glutathione-glutamate+glutathione-glycine-cysteine Abbr=GSH Scale=1.0 Shift=0.0 PPM Start=-3.1207565171441987 PPM End=12.528
   Mixture of [metab*scale] = glutathione-glutamate*1.000000 + glutathione-glycine-cysteine*1.000000
 
 ===========================================================================
 This LCModel format RAW file was created using the 
 Vespa-Simulation spectral simulation program using 
 the following settings and parameters 
 
 Sweep Width = 2000.0 Hz 
 Vector Size = 2048 points 
 Apodization = 14.0 Hz Lorentzian broadening
 B0 Field    = 127.74 MHz 
 Ref Singlet = False
  
 $NMID ID='Cr'
 FMTDAT='(2E16.6)'
 VOLUME=1.0
 TRAMP=1.0
 $END
    6.000000E+00    1.049508E-16
    4.851488E+00    1.743848E+00
    2.199843E+00    2.969800E+00
   -7.673356E-01    3.388766E+00
   -2.827971E+00    2.943724E+00
   -3.284192E+00    1.840493E+00
   -2.236903E+00    5.000783E-01
   -4.643336E-01   -5.766027E-01
    1.008387E+00   -1.000119E+00
    1.419201E+00   -6.661091E-01
    6.090252E-01    1.762585E-01
   -9.551635E-01    1.014109E+00
   -2.455644E+00    1.299441E+00
   -3.138629E+00    7.202608E-01
   -2.659210E+00   -6.181351E-01
   -1.203337E+00   -2.203566E+00
    6.437476E-01   -3.332012E+00
    2.190785E+00   -3.435375E+00
    2.941590E+00   -2.365199E+00
    2.768660E+00   -4.874733E-01
    1.903602E+00    1.467363E+00
    7.811873E-01    2.734413E+00
   -1.684073E-01    2.866290E+00
   -6.811348E-01    1.934951E+00
   -7.188771E-01    4.839303E-01
   -4.293262E-01   -7.446102E-01
   -4.881004E-02   -1.171898E+00
    1.996627E-01   -6.548895E-01
    1.777812E-01    4.622624E-01
   -1.373133E-01    1.536502E+00
   -6.562571E-01    1.953870E+00
   -1.205228E+00    1.431646E+00
   -1.573930E+00    1.482286E-01
   -1.580391E+00   -1.354785E+00
   -1.141079E+00   -2.440150E+00
   -3.221573E-01   -2.673974E+00
    6.576937E-01   -2.012024E+00
    1.489185E+00   -7.921358E-01
    1.887029E+00    4.484838E-01
    1.713392E+00    1.230960E+00
    1.051048E+00    1.339622E+00
    1.826441E-01    8.845395E-01
   -5.255330E-01    2.078310E-01
   -7.881985E-01   -3.040755E-01
   -5.363030E-01   -4.037547E-01
    4.627454E-02   -7.772190E-02
    6.087536E-01    4.784775E-01
    8.051782E-01    9.760444E-01
    4.691013E-01    1.173382E+00
   -2.961506E-01    9.745429E-01
   -1.159517E+00    4.500785E-01
   -1.718170E+00   -2.140512E-01
   -1.691960E+00   -8.035083E-01
   -1.060182E+00   -1.155316E+00
   -7.326172E-02   -1.202033E+00
    8.655625E-01   -9.739435E-01
    1.389501E+00   -5.717110E-01
    1.334758E+00   -1.270596E-01
    8.049816E-01    2.353597E-01
    1.061355E-01    4.287989E-01
   -4.107493E-01    4.258784E-01
   -5.186615E-01    2.670142E-01
   -2.132813E-01    4.991805E-02
    3.017755E-01   -1.030482E-01
    7.286024E-01   -9.359810E-02
    8.258960E-01    1.050102E-01
    5.219660E-01    4.252538E-01
   -6.120157E-02    7.238461E-01
   -6.768688E-01    8.406164E-01
   -1.074745E+00    6.744701E-01
   -1.112869E+00    2.403588E-01
   -8.089912E-01   -3.237283E-01
   -3.151202E-01   -8.092816E-01
    1.641064E-01   -1.028383E+00
    4.644036E-01   -9.009671E-01
    5.232086E-01   -4.950470E-01
    3.870518E-01    2.512469E-03
    1.710755E-01    3.727421E-01
   -2.762813E-03    4.674118E-01
   -5.781274E-02    2.778771E-01
    1.480569E-02   -6.441941E-02
    1.659501E-01   -3.559428E-01
    3.185120E-01   -4.235402E-01
    4.007747E-01   -2.104748E-01
    3.702849E-01    1.963508E-01
    2.234320E-01    6.101480E-01
   -7.011041E-03    8.360613E-01
   -2.622711E-01    7.647217E-01
   -4.729276E-01    4.219869E-01
   -5.773250E-01   -4.741678E-02
   -5.410319E-01   -4.515228E-01
   -3.716378E-01   -6.408040E-01
   -1.215691E-01   -5.722017E-01
    1.260761E-01   -3.187898E-01
    2.873034E-01   -2.492309E-02
    3.119461E-01    1.675760E-01
    2.075613E-01    1.845660E-01
    3.912147E-02    4.637187E-02
   -9.870644E-02   -1.525269E-01
   -1.259332E-01   -2.962467E-01
   -1.763916E-02   -3.042776E-01
    1.803291E-01   -1.654269E-01
    3.701373E-01    6.390242E-02
    4.479588E-01    2.916181E-01
    3.554916E-01    4.332263E-01
    1.114300E-01    4.456609E-01
   -1.937831E-01    3.384041E-01
   -4.382635E-01    1.612649E-01
   -5.251373E-01   -2.129027E-02
   -4.274354E-01   -1.559053E-01
   -1.994739E-01   -2.160681E-01
    5.057650E-02   -2.044430E-01
    2.130827E-01   -1.451695E-01
    2.282581E-01   -7.176154E-02
    1.115312E-01   -1.557499E-02
   -5.843843E-02    2.705983E-03
   -1.816834E-01   -2.175773E-02
   -1.870798E-01   -7.648502E-02
   -6.591019E-02   -1.346743E-01
    1.265533E-01   -1.635336E-01
    3.004197E-01   -1.368401E-01
    3.754955E-01   -4.770665E-02
    3.182725E-01    8.433175E-02
    1.545955E-01    2.170522E-01
   -4.613187E-02    3.006954E-01
   -2.053685E-01    2.992586E-01
   -2.705851E-01    2.083112E-01
   -2.349357E-01    5.999105E-02
   -1.340669E-01   -8.886325E-02
   -2.439821E-02   -1.811911E-01
    4.480865E-02   -1.857147E-01
    5.188945E-02   -1.116625E-01
    7.765569E-03   -4.454850E-03
   -5.436290E-02    7.631937E-02
   -9.736965E-02    8.617086E-02
   -9.705382E-02    1.782480E-02
   -5.047501E-02   -9.494048E-02
    2.598693E-02   -1.938267E-01
    1.058125E-01   -2.248057E-01
    1.632869E-01   -1.648669E-01
    1.818298E-01   -3.355319E-02
    1.575775E-01    1.162734E-01
    9.868601E-02    2.235596E-01
    2.191951E-02    2.475011E-01
   -5.207702E-02    1.854469E-01
   -1.041373E-01    7.204900E-02
   -1.218081E-01   -3.902142E-02
   -1.035871E-01   -1.011265E-01
   -6.022948E-02   -9.554963E-02
   -1.169975E-02   -3.760642E-02
    2.020026E-02    3.383813E-02
    2.117119E-02    7.712506E-02
   -8.404702E-03    6.807964E-02
   -5.234263E-02    1.017650E-02
   -8.516836E-02   -6.926179E-02
   -8.397597E-02   -1.337102E-01
   -4.026045E-02   -1.549429E-01
    3.429643E-02   -1.249465E-01
    1.115900E-01   -5.742231E-02
    1.592856E-01    2.047602E-02
    1.559058E-01    8.115160E-02
    1.014393E-01    1.077273E-01
    1.803661E-02    9.891002E-02
   -5.991605E-02    6.650850E-02
   -1.016883E-01    2.814457E-02
   -9.435080E-02   -7.621466E-04
   -4.825296E-02   -1.228364E-02
    8.800673E-03   -7.156024E-03
    4.565320E-02    7.509071E-03
    4.312971E-02    2.205008E-02
    3.038144E-03    2.792055E-02
   -5.339305E-02    2.021444E-02
   -9.653410E-02   -1.104914E-03
   -1.031026E-01   -3.113047E-02
