 Vespa-Simulation Mixed Metabolite Output
 This file was generated by Vespa-Simulation. You can learn about and download Vespa here:
https://github.com/vespa-mrs/vespa/tree/main/vespa

 
 Output Path/Filename = /home/stud/casperc/bhome/Project1(DeepFit)/DeepFit-data-generation/DeepFitData_TE_20_lw14_2048p
 Output Loop Values = (1,1,1)  ( Loop 1 = 10, Loop 2 = 10, Loop3 Inactive )
 Output Comment
 ---------------------------------------------------------------------------
 
 
 Experiment Information
 ---------------------------------------------------------------------------
 --- Experiment 18b0168e-f5f0-4bd4-8d52-da93aba06c60 ---
 Name: SyntheticDataSetDeepFitTE20
 Public: False
 Created: 2024-10-08T09:55:07
 Comment (abbr.): 
 PI: Casper Cappelen
 b0: 127.740000
 Peak Search PPM low/high: -15.000000 / 15.000000
 Blend tol. PPM/phase: 0.001500 / 50.000000
 Pulse seq.: 43be13ae-de9a-40a1-9a2d-c872d8bjs100 (PRESS Ideal)
 0 User static parameters: 
 22 Metabolites: 2-hydroxyglutarate, GPC-pcholine2, NAAG-truncated, alanine, choline-trimethyl, creatine, ethanolamine, gaba, glucose-beta, glutamate, glutamine, glutathione-glutamate, glutathione-glycine-cysteine, glycine, lactate, myo-inositol, n-acetylaspartate, phosphocreatine, phosphorylcholine-trimethyl, phosphorylethanolamine, pyruvate, taurine
 22 Simulations: (not shown)
 
 Metabolite Formatting Information
 ---------------------------------------------------------------------------
 Name=2-hydroxyglutarate Abbr=2HG Scale=1.0 Shift=0.0 PPM Start=-3.1207465171441986 PPM End=12.528391440425866
 Name=GPC-pcholine2 Abbr=GPC Scale=1.0 Shift=0.0 PPM Start=-3.1207465171441986 PPM End=12.528391440425866
 Name=NAAG-truncated Abbr=NAAG Scale=1.0 Shift=0.0 PPM Start=-3.1207465171441986 PPM End=12.528391440425866
 Name=alanine Abbr=Ala Scale=1.0 Shift=0.0 PPM Start=-3.1207465171441986 PPM End=12.528391440425866
 Name=choline-trimethyl Abbr=Cho Scale=1.0 Shift=0.0 PPM Start=-3.1207465171441986 PPM End=12.528391440425866
 Name=creatine Abbr=Cr Scale=1.0 Shift=0.0 PPM Start=-3.1207465171441986 PPM End=12.528391440425866
 Name=ethanolamine Abbr=ETA Scale=1.0 Shift=0.0 PPM Start=-3.1207465171441986 PPM End=12.528391440425866
 Name=gaba Abbr=GABA Scale=1.0 Shift=0.0 PPM Start=-3.1207465171441986 PPM End=12.528391440425866
 Name=glucose-beta Abbr=Glc Scale=1.0 Shift=0.0 PPM Start=-3.1207465171441986 PPM End=12.528391440425866
 Name=glutamate Abbr=Glu Scale=1.0 Shift=0.0 PPM Start=-3.1207465171441986 PPM End=12.528391440425866
 Name=glutamine Abbr=Gln Scale=1.0 Shift=0.0 PPM Start=-3.1207465171441986 PPM End=12.528391440425866
 Name=glycine Abbr=Gly Scale=1.0 Shift=0.0 PPM Start=-3.1207465171441986 PPM End=12.528391440425866
 Name=lactate Abbr=Lac Scale=1.0 Shift=0.0 PPM Start=-3.1207465171441986 PPM End=12.528391440425866
 Name=myo-inositol Abbr=mI Scale=1.0 Shift=0.0 PPM Start=-3.1207465171441986 PPM End=12.528391440425866
 Name=n-acetylaspartate Abbr=NAA Scale=1.0 Shift=0.0 PPM Start=-3.1207465171441986 PPM End=12.528391440425866
 Name=phosphocreatine Abbr=PCr Scale=1.0 Shift=0.0 PPM Start=-3.1207465171441986 PPM End=12.528391440425866
 Name=phosphorylcholine-trimethyl Abbr=PCho Scale=1.0 Shift=0.0 PPM Start=-3.1207465171441986 PPM End=12.528391440425866
 Name=phosphorylethanolamine Abbr=PE Scale=1.0 Shift=0.0 PPM Start=-3.1207465171441986 PPM End=12.528391440425866
 Name=pyruvate Abbr=Pyr Scale=1.0 Shift=0.0 PPM Start=-3.1207465171441986 PPM End=12.528391440425866
 Name=taurine Abbr=Tau Scale=1.0 Shift=0.0 PPM Start=-3.1207465171441986 PPM End=12.528391440425866
 Name=glutathione-glutamate+glutathione-glycine-cysteine Abbr=GSH Scale=1.0 Shift=0.0 PPM Start=-3.1207565171441987 PPM End=12.528
   Mixture of [metab*scale] = glutathione-glutamate*1.000000 + glutathione-glycine-cysteine*1.000000
 
 ===========================================================================
 This LCModel format RAW file was created using the 
 Vespa-Simulation spectral simulation program using 
 the following settings and parameters 
 
 Sweep Width = 2000.0 Hz 
 Vector Size = 2048 points 
 Apodization = 14.0 Hz Lorentzian broadening
 B0 Field    = 127.74 MHz 
 Ref Singlet = False
  
 This data has been FFTd to be in the FREQUENCY domain
 
 $NMID ID='Cr'
 FMTDAT='(2E16.6)'
 VOLUME=1.0
 TRAMP=1.0
 $END
    3.632162E+00    9.332000E+00
    3.641827E+00    9.420207E+00
    3.651772E+00    9.509757E+00
    3.662005E+00    9.600689E+00
    3.672538E+00    9.693041E+00
    3.683380E+00    9.786855E+00
    3.694545E+00    9.882175E+00
    3.706045E+00    9.979045E+00
    3.717894E+00    1.007751E+01
    3.730106E+00    1.017762E+01
    3.742697E+00    1.027942E+01
    3.755681E+00    1.038297E+01
    3.769074E+00    1.048831E+01
    3.782892E+00    1.059551E+01
    3.797153E+00    1.070462E+01
    3.811878E+00    1.081571E+01
    3.827088E+00    1.092884E+01
    3.842806E+00    1.104408E+01
    3.859058E+00    1.116149E+01
    3.875866E+00    1.128115E+01
    3.893258E+00    1.140313E+01
    3.911257E+00    1.152750E+01
    3.929892E+00    1.165436E+01
    3.949193E+00    1.178378E+01
    3.969192E+00    1.191587E+01
    3.989922E+00    1.205070E+01
    4.011419E+00    1.218839E+01
    4.033724E+00    1.232904E+01
    4.056880E+00    1.247276E+01
    4.080932E+00    1.261967E+01
    4.105932E+00    1.276989E+01
    4.131931E+00    1.292353E+01
    4.158985E+00    1.308075E+01
    4.187151E+00    1.324166E+01
    4.216491E+00    1.340642E+01
    4.247069E+00    1.357518E+01
    4.278956E+00    1.374811E+01
    4.312224E+00    1.392538E+01
    4.346956E+00    1.410717E+01
    4.383237E+00    1.429369E+01
    4.421165E+00    1.448514E+01
    4.460842E+00    1.468173E+01
    4.502381E+00    1.488371E+01
    4.545905E+00    1.509131E+01
    4.591543E+00    1.530480E+01
    4.639439E+00    1.552445E+01
    4.689748E+00    1.575057E+01
    4.742636E+00    1.598345E+01
    4.798288E+00    1.622344E+01
    4.856902E+00    1.647089E+01
    4.918695E+00    1.672617E+01
    4.983904E+00    1.698970E+01
    5.052788E+00    1.726191E+01
    5.125630E+00    1.754326E+01
    5.202741E+00    1.783424E+01
    5.284464E+00    1.813541E+01
    5.371179E+00    1.844732E+01
    5.463304E+00    1.877060E+01
    5.561303E+00    1.910591E+01
    5.665690E+00    1.945398E+01
    5.777034E+00    1.981556E+01
    5.895970E+00    2.019151E+01
    6.023210E+00    2.058272E+01
    6.159546E+00    2.099017E+01
    6.305872E+00    2.141493E+01
    6.463188E+00    2.185814E+01
    6.632625E+00    2.232105E+01
    6.815457E+00    2.280502E+01
    7.013131E+00    2.331153E+01
    7.227289E+00    2.384219E+01
    7.459806E+00    2.439874E+01
    7.712825E+00    2.498311E+01
    7.988810E+00    2.559737E+01
    8.290596E+00    2.624380E+01
    8.621459E+00    2.692488E+01
    8.985201E+00    2.764328E+01
    9.386249E+00    2.840195E+01
    9.829777E+00    2.920405E+01
    1.032186E+01    3.005298E+01
    1.086967E+01    3.095242E+01
    1.148169E+01    3.190624E+01
    1.216800E+01    3.291850E+01
    1.294066E+01    3.399337E+01
    1.381412E+01    3.513497E+01
    1.480578E+01    3.634719E+01
    1.593670E+01    3.763333E+01
    1.723243E+01    3.899553E+01
    1.872403E+01    4.043402E+01
    2.044938E+01    4.194582E+01
    2.245456E+01    4.352283E+01
    2.479551E+01    4.514903E+01
    2.753958E+01    4.679617E+01
    3.076659E+01    4.841748E+01
    3.456856E+01    4.993860E+01
    3.904634E+01    5.124482E+01
    4.430004E+01    5.216431E+01
    5.040822E+01    5.244852E+01
    5.738878E+01    5.175479E+01
    6.513471E+01    4.964426E+01
    7.332578E+01    4.562052E+01
    8.134190E+01    3.924269E+01
    8.824641E+01    3.033004E+01
    9.293579E+01    1.920258E+01
    9.448990E+01    6.794705E+00
    9.257296E+01   -5.531817E+00
    8.760097E+01   -1.644344E+01
    8.053591E+01   -2.507151E+01
    7.247683E+01   -3.116176E+01
    6.432866E+01   -3.493629E+01
    5.667503E+01   -3.685076E+01
    4.980763E+01   -3.739909E+01
    4.381550E+01   -3.701025E+01
    3.867129E+01   -3.601581E+01
    3.429252E+01   -3.465477E+01
    3.057825E+01   -3.309159E+01
    2.742830E+01   -3.143569E+01
    2.475195E+01   -2.975778E+01
    2.247080E+01   -2.810214E+01
    2.051888E+01   -2.649535E+01
    1.884144E+01   -2.495234E+01
    1.739341E+01   -2.348046E+01
    1.613777E+01   -2.208223E+01
    1.504415E+01   -2.075711E+01
    1.408757E+01   -1.950274E+01
    1.324745E+01   -1.831568E+01
    1.250677E+01   -1.719198E+01
    1.185140E+01   -1.612742E+01
    1.126955E+01   -1.511779E+01
    1.075136E+01   -1.415899E+01
    1.028853E+01   -1.324710E+01
    9.874071E+00   -1.237842E+01
    9.502030E+00   -1.154950E+01
    9.167358E+00   -1.075711E+01
    8.865737E+00   -9.998271E+00
    8.593465E+00   -9.270235E+00
    8.347357E+00   -8.570456E+00
    8.124665E+00   -7.896589E+00
    7.923007E+00   -7.246468E+00
    7.740318E+00   -6.618094E+00
    7.574797E+00   -6.009619E+00
    7.424875E+00   -5.419329E+00
    7.289179E+00   -4.845635E+00
    7.166507E+00   -4.287059E+00
    7.055805E+00   -3.742223E+00
    6.956149E+00   -3.209836E+00
    6.866730E+00   -2.688693E+00
    6.786835E+00   -2.177658E+00
    6.715841E+00   -1.675662E+00
    6.653203E+00   -1.181690E+00
    6.598443E+00   -6.947813E-01
    6.551148E+00   -2.140159E-01
    6.510962E+00    2.614853E-01
    6.477579E+00    7.325677E-01
    6.450741E+00    1.200047E+00
    6.430233E+00    1.664715E+00
    6.415880E+00    2.127343E+00
    6.407545E+00    2.588686E+00
    6.405128E+00    3.049490E+00
    6.408564E+00    3.510490E+00
    6.417820E+00    3.972415E+00
    6.432897E+00    4.435996E+00
    6.453830E+00    4.901965E+00
    6.480684E+00    5.371060E+00
    6.513559E+00    5.844030E+00
    6.552590E+00    6.321637E+00
    6.597947E+00    6.804660E+00
    6.649836E+00    7.293899E+00
    6.708507E+00    7.790181E+00
    6.774246E+00    8.294360E+00
    6.847388E+00    8.807326E+00
    6.928316E+00    9.330009E+00
    7.017468E+00    9.863385E+00
    7.115341E+00    1.040848E+01
