 Vespa-Simulation Mixed Metabolite Output
 This file was generated by Vespa-Simulation. You can learn about and download Vespa here:
https://github.com/vespa-mrs/vespa/tree/main/vespa

 
 Output Path/Filename = /home/stud/casperc/bhome/Project1(DeepFit)/DeepFit-data-generation/DeepFitData_TE_20_lw14_2048p
 Output Loop Values = (1,1,1)  ( Loop 1 = 10, Loop 2 = 10, Loop3 Inactive )
 Output Comment
 ---------------------------------------------------------------------------
 
 
 Experiment Information
 ---------------------------------------------------------------------------
 --- Experiment 18b0168e-f5f0-4bd4-8d52-da93aba06c60 ---
 Name: SyntheticDataSetDeepFitTE20
 Public: False
 Created: 2024-10-08T09:55:07
 Comment (abbr.): 
 PI: Casper Cappelen
 b0: 127.740000
 Peak Search PPM low/high: -15.000000 / 15.000000
 Blend tol. PPM/phase: 0.001500 / 50.000000
 Pulse seq.: 43be13ae-de9a-40a1-9a2d-c872d8bjs100 (PRESS Ideal)
 0 User static parameters: 
 22 Metabolites: 2-hydroxyglutarate, GPC-pcholine2, NAAG-truncated, alanine, choline-trimethyl, creatine, ethanolamine, gaba, glucose-beta, glutamate, glutamine, glutathione-glutamate, glutathione-glycine-cysteine, glycine, lactate, myo-inositol, n-acetylaspartate, phosphocreatine, phosphorylcholine-trimethyl, phosphorylethanolamine, pyruvate, taurine
 22 Simulations: (not shown)
 
 Metabolite Formatting Information
 ---------------------------------------------------------------------------
 Name=2-hydroxyglutarate Abbr=2HG Scale=1.0 Shift=0.0 PPM Start=-3.1207465171441986 PPM End=12.528391440425866
 Name=GPC-pcholine2 Abbr=GPC Scale=1.0 Shift=0.0 PPM Start=-3.1207465171441986 PPM End=12.528391440425866
 Name=NAAG-truncated Abbr=NAAG Scale=1.0 Shift=0.0 PPM Start=-3.1207465171441986 PPM End=12.528391440425866
 Name=alanine Abbr=Ala Scale=1.0 Shift=0.0 PPM Start=-3.1207465171441986 PPM End=12.528391440425866
 Name=choline-trimethyl Abbr=Cho Scale=1.0 Shift=0.0 PPM Start=-3.1207465171441986 PPM End=12.528391440425866
 Name=creatine Abbr=Cr Scale=1.0 Shift=0.0 PPM Start=-3.1207465171441986 PPM End=12.528391440425866
 Name=ethanolamine Abbr=ETA Scale=1.0 Shift=0.0 PPM Start=-3.1207465171441986 PPM End=12.528391440425866
 Name=gaba Abbr=GABA Scale=1.0 Shift=0.0 PPM Start=-3.1207465171441986 PPM End=12.528391440425866
 Name=glucose-beta Abbr=Glc Scale=1.0 Shift=0.0 PPM Start=-3.1207465171441986 PPM End=12.528391440425866
 Name=glutamate Abbr=Glu Scale=1.0 Shift=0.0 PPM Start=-3.1207465171441986 PPM End=12.528391440425866
 Name=glutamine Abbr=Gln Scale=1.0 Shift=0.0 PPM Start=-3.1207465171441986 PPM End=12.528391440425866
 Name=glycine Abbr=Gly Scale=1.0 Shift=0.0 PPM Start=-3.1207465171441986 PPM End=12.528391440425866
 Name=lactate Abbr=Lac Scale=1.0 Shift=0.0 PPM Start=-3.1207465171441986 PPM End=12.528391440425866
 Name=myo-inositol Abbr=mI Scale=1.0 Shift=0.0 PPM Start=-3.1207465171441986 PPM End=12.528391440425866
 Name=n-acetylaspartate Abbr=NAA Scale=1.0 Shift=0.0 PPM Start=-3.1207465171441986 PPM End=12.528391440425866
 Name=phosphocreatine Abbr=PCr Scale=1.0 Shift=0.0 PPM Start=-3.1207465171441986 PPM End=12.528391440425866
 Name=phosphorylcholine-trimethyl Abbr=PCho Scale=1.0 Shift=0.0 PPM Start=-3.1207465171441986 PPM End=12.528391440425866
 Name=phosphorylethanolamine Abbr=PE Scale=1.0 Shift=0.0 PPM Start=-3.1207465171441986 PPM End=12.528391440425866
 Name=pyruvate Abbr=Pyr Scale=1.0 Shift=0.0 PPM Start=-3.1207465171441986 PPM End=12.528391440425866
 Name=taurine Abbr=Tau Scale=1.0 Shift=0.0 PPM Start=-3.1207465171441986 PPM End=12.528391440425866
 Name=glutathione-glutamate+glutathione-glycine-cysteine Abbr=GSH Scale=1.0 Shift=0.0 PPM Start=-3.1207565171441987 PPM End=12.528
   Mixture of [metab*scale] = glutathione-glutamate*1.000000 + glutathione-glycine-cysteine*1.000000
 
 ===========================================================================
 This LCModel format RAW file was created using the 
 Vespa-Simulation spectral simulation program using 
 the following settings and parameters 
 
 Sweep Width = 2000.0 Hz 
 Vector Size = 2048 points 
 Apodization = 14.0 Hz Lorentzian broadening
 B0 Field    = 127.74 MHz 
 Ref Singlet = False
  
 $NMID ID='ETA'
 FMTDAT='(2E16.6)'
 VOLUME=1.0
 TRAMP=1.0
 $END
    3.667983E+00   -8.125016E-05
    3.144571E+00    1.671477E+00
    1.898853E+00    2.813734E+00
    3.328710E-01    3.156682E+00
   -1.087840E+00    2.695947E+00
   -1.991485E+00    1.672905E+00
   -2.213460E+00    4.719625E-01
   -1.828834E+00   -5.229803E-01
   -1.098319E+00   -1.058960E+00
   -3.537100E-01   -1.085548E+00
    1.310178E-01   -7.464525E-01
    2.346223E-01   -3.005673E-01
    1.720366E-02   -7.296412E-03
   -3.232222E-01   -2.172387E-02
   -5.446133E-01   -3.385988E-01
   -4.661690E-01   -8.033313E-01
   -4.391015E-02   -1.181925E+00
    6.109542E-01   -1.259949E+00
    1.275515E+00   -9.313439E-01
    1.701510E+00   -2.433934E-01
    1.710284E+00    6.175688E-01
    1.260572E+00    1.392608E+00
    4.647045E-01    1.842407E+00
   -4.509442E-01    1.830599E+00
   -1.224871E+00    1.368334E+00
   -1.648778E+00    6.056979E-01
   -1.633448E+00   -2.244519E-01
   -1.230099E+00   -8.878230E-01
   -6.023735E-01   -1.225062E+00
    3.788138E-02   -1.196652E+00
    5.058486E-01   -8.828404E-01
    7.024387E-01   -4.421328E-01
    6.371064E-01   -4.658458E-02
    4.095877E-01    1.809211E-01
    1.608246E-01    2.049158E-01
    1.377481E-02    7.910786E-02
    2.689798E-02   -8.572060E-02
    1.767867E-01   -1.729687E-01
    3.742390E-01   -1.096926E-01
    5.053662E-01    1.044518E-01
    4.803763E-01    3.985714E-01
    2.709326E-01    6.601001E-01
   -7.760984E-02    7.797527E-01
   -4.627211E-01    6.942667E-01
   -7.623975E-01    4.108404E-01
   -8.793964E-01    4.929197E-03
   -7.752460E-01   -4.066024E-01
   -4.823006E-01   -7.063285E-01
   -9.043733E-02   -8.155444E-01
    2.853889E-01   -7.182273E-01
    5.443206E-01   -4.621030E-01
    6.310623E-01   -1.379355E-01
    5.494169E-01    1.541533E-01
    3.543917E-01    3.383916E-01
    1.275777E-01    3.854373E-01
   -5.400370E-02    3.159161E-01
   -1.439608E-01    1.860630E-01
   -1.385431E-01    6.228376E-02
   -7.173988E-02   -5.016490E-03
    3.157997E-03    1.353515E-03
    3.733954E-02    6.263784E-02
    6.203748E-03    1.355931E-01
   -8.209626E-02    1.725894E-01
   -1.916902E-01    1.420103E-01
   -2.746814E-01    4.113055E-02
   -2.908523E-01   -1.029522E-01
   -2.236175E-01   -2.440265E-01
   -8.643952E-02   -3.343250E-01
    8.219003E-02   -3.421541E-01
    2.327440E-01   -2.629874E-01
    3.220699E-01   -1.203414E-01
    3.276331E-01    4.322088E-02
    2.538712E-01    1.811994E-01
    1.288156E-01    2.586112E-01
   -6.995496E-03    2.622489E-01
   -1.148700E-01    2.027322E-01
   -1.702472E-01    1.082661E-01
   -1.688578E-01    1.310279E-02
   -1.251808E-01   -5.465901E-02
   -6.464482E-02   -8.164560E-02
   -1.298469E-02   -7.146338E-02
    1.308666E-02   -4.057585E-02
    1.063699E-02   -1.003027E-02
   -1.047569E-02    3.438013E-03
   -3.335762E-02   -6.441700E-03
   -4.190124E-02   -3.408567E-02
   -2.750385E-02   -6.545979E-02
    7.770512E-03   -8.452088E-02
    5.248609E-02   -7.996036E-02
    9.068922E-02   -4.964990E-02
    1.082356E-01   -1.293917E-03
    9.807423E-02    5.067447E-02
    6.260351E-02    9.052930E-02
    1.246356E-02    1.068053E-01
   -3.752511E-02    9.599404E-02
   -7.359184E-02    6.316539E-02
   -8.741531E-02    1.958889E-02
   -7.827099E-02   -2.152990E-02
   -5.237020E-02   -4.950838E-02
   -1.994008E-02   -5.927296E-02
    8.656421E-03   -5.213958E-02
    2.630589E-02   -3.434010E-02
    3.090462E-02   -1.408994E-02
    2.511002E-02    1.558685E-03
    1.446106E-02    8.918009E-03
    4.801643E-03    8.288355E-03
    4.374621E-05    3.012446E-03
    1.051022E-03   -2.440988E-03
    5.878908E-03   -4.490802E-03
    1.107294E-02   -1.776775E-03
    1.336332E-02    4.600141E-03
    1.103668E-02    1.185898E-02
    4.496282E-03    1.689322E-02
   -4.098783E-03    1.758483E-02
   -1.185186E-02    1.356729E-02
   -1.631211E-02    6.211931E-03
   -1.634857E-02   -2.053546E-03
   -1.241197E-02   -8.743999E-03
   -6.171433E-03   -1.219835E-02
    2.433689E-04   -1.203188E-02
    5.045448E-03   -9.048256E-03
    7.326678E-03   -4.735832E-03
    7.166269E-03   -6.162798E-04
    5.356632E-03    2.276640E-03
    2.929779E-03    3.609689E-03
    7.197924E-04    3.637858E-03
   -8.636549E-04    2.889632E-03
   -1.805187E-03    1.839867E-03
   -2.275325E-03    7.260261E-04
   -2.395035E-03   -4.323734E-04
   -2.112873E-03   -1.666315E-03
   -1.255643E-03   -2.867094E-03
    2.888676E-04   -3.704785E-03
    2.373872E-03   -3.716782E-03
    4.508272E-03   -2.533797E-03
    5.957062E-03   -1.303224E-04
    6.006385E-03    3.036670E-03
    4.284988E-03    6.092734E-03
    9.928900E-04    8.016890E-03
   -3.076831E-03    8.017835E-03
   -6.761118E-03    5.867727E-03
   -8.920024E-03    2.043196E-03
   -8.851434E-03   -2.396982E-03
   -6.561152E-03   -6.163532E-03
   -2.775735E-03   -8.187293E-03
    1.316156E-03   -7.995805E-03
    4.490928E-03   -5.865394E-03
    5.928132E-03   -2.694100E-03
    5.484349E-03    3.572693E-04
    3.701154E-03    2.311255E-03
    1.549189E-03    2.731636E-03
    1.526845E-05    1.854676E-03
   -3.008867E-04    4.474093E-04
    5.819741E-04   -5.439192E-04
    2.053814E-03   -4.097535E-04
    3.185907E-03    1.010875E-03
    3.135187E-03    3.247400E-03
    1.516845E-03    5.375716E-03
   -1.404055E-03    6.385481E-03
   -4.778101E-03    5.591536E-03
   -7.471323E-03    2.926917E-03
   -8.479281E-03   -9.937350E-04
   -7.304254E-03   -5.067527E-03
   -4.149297E-03   -8.078469E-03
    1.388035E-04   -9.114814E-03
    4.353180E-03   -7.876068E-03
    7.329607E-03   -4.762663E-03
    8.323195E-03   -7.215452E-04
    7.223527E-03    3.082644E-03
    4.548122E-03    5.653160E-03
    1.225196E-03    6.462285E-03
   -1.741936E-03    5.571504E-03
   -3.603766E-03    3.543672E-03
   -4.073595E-03    1.196328E-03
