 Vespa-Simulation Mixed Metabolite Output
 This file was generated by Vespa-Simulation. You can learn about and download Vespa here:
https://github.com/vespa-mrs/vespa/tree/main/vespa

 
 Output Path/Filename = /home/stud/casperc/bhome/Project1(DeepFit)/DeepFit-data-generation/DeepFitData_TE_20_lw14_2048p
 Output Loop Values = (1,1,1)  ( Loop 1 = 10, Loop 2 = 10, Loop3 Inactive )
 Output Comment
 ---------------------------------------------------------------------------
 
 
 Experiment Information
 ---------------------------------------------------------------------------
 --- Experiment 18b0168e-f5f0-4bd4-8d52-da93aba06c60 ---
 Name: SyntheticDataSetDeepFitTE20
 Public: False
 Created: 2024-10-08T09:55:07
 Comment (abbr.): 
 PI: Casper Cappelen
 b0: 127.740000
 Peak Search PPM low/high: -15.000000 / 15.000000
 Blend tol. PPM/phase: 0.001500 / 50.000000
 Pulse seq.: 43be13ae-de9a-40a1-9a2d-c872d8bjs100 (PRESS Ideal)
 0 User static parameters: 
 22 Metabolites: 2-hydroxyglutarate, GPC-pcholine2, NAAG-truncated, alanine, choline-trimethyl, creatine, ethanolamine, gaba, glucose-beta, glutamate, glutamine, glutathione-glutamate, glutathione-glycine-cysteine, glycine, lactate, myo-inositol, n-acetylaspartate, phosphocreatine, phosphorylcholine-trimethyl, phosphorylethanolamine, pyruvate, taurine
 22 Simulations: (not shown)
 
 Metabolite Formatting Information
 ---------------------------------------------------------------------------
 Name=2-hydroxyglutarate Abbr=2HG Scale=1.0 Shift=0.0 PPM Start=-3.1207465171441986 PPM End=12.528391440425866
 Name=GPC-pcholine2 Abbr=GPC Scale=1.0 Shift=0.0 PPM Start=-3.1207465171441986 PPM End=12.528391440425866
 Name=NAAG-truncated Abbr=NAAG Scale=1.0 Shift=0.0 PPM Start=-3.1207465171441986 PPM End=12.528391440425866
 Name=alanine Abbr=Ala Scale=1.0 Shift=0.0 PPM Start=-3.1207465171441986 PPM End=12.528391440425866
 Name=choline-trimethyl Abbr=Cho Scale=1.0 Shift=0.0 PPM Start=-3.1207465171441986 PPM End=12.528391440425866
 Name=creatine Abbr=Cr Scale=1.0 Shift=0.0 PPM Start=-3.1207465171441986 PPM End=12.528391440425866
 Name=ethanolamine Abbr=ETA Scale=1.0 Shift=0.0 PPM Start=-3.1207465171441986 PPM End=12.528391440425866
 Name=gaba Abbr=GABA Scale=1.0 Shift=0.0 PPM Start=-3.1207465171441986 PPM End=12.528391440425866
 Name=glucose-beta Abbr=Glc Scale=1.0 Shift=0.0 PPM Start=-3.1207465171441986 PPM End=12.528391440425866
 Name=glutamate Abbr=Glu Scale=1.0 Shift=0.0 PPM Start=-3.1207465171441986 PPM End=12.528391440425866
 Name=glutamine Abbr=Gln Scale=1.0 Shift=0.0 PPM Start=-3.1207465171441986 PPM End=12.528391440425866
 Name=glycine Abbr=Gly Scale=1.0 Shift=0.0 PPM Start=-3.1207465171441986 PPM End=12.528391440425866
 Name=lactate Abbr=Lac Scale=1.0 Shift=0.0 PPM Start=-3.1207465171441986 PPM End=12.528391440425866
 Name=myo-inositol Abbr=mI Scale=1.0 Shift=0.0 PPM Start=-3.1207465171441986 PPM End=12.528391440425866
 Name=n-acetylaspartate Abbr=NAA Scale=1.0 Shift=0.0 PPM Start=-3.1207465171441986 PPM End=12.528391440425866
 Name=phosphocreatine Abbr=PCr Scale=1.0 Shift=0.0 PPM Start=-3.1207465171441986 PPM End=12.528391440425866
 Name=phosphorylcholine-trimethyl Abbr=PCho Scale=1.0 Shift=0.0 PPM Start=-3.1207465171441986 PPM End=12.528391440425866
 Name=phosphorylethanolamine Abbr=PE Scale=1.0 Shift=0.0 PPM Start=-3.1207465171441986 PPM End=12.528391440425866
 Name=pyruvate Abbr=Pyr Scale=1.0 Shift=0.0 PPM Start=-3.1207465171441986 PPM End=12.528391440425866
 Name=taurine Abbr=Tau Scale=1.0 Shift=0.0 PPM Start=-3.1207465171441986 PPM End=12.528391440425866
 Name=glutathione-glutamate+glutathione-glycine-cysteine Abbr=GSH Scale=1.0 Shift=0.0 PPM Start=-3.1207565171441987 PPM End=12.528
   Mixture of [metab*scale] = glutathione-glutamate*1.000000 + glutathione-glycine-cysteine*1.000000
 
 ===========================================================================
 This LCModel format RAW file was created using the 
 Vespa-Simulation spectral simulation program using 
 the following settings and parameters 
 
 Sweep Width = 2000.0 Hz 
 Vector Size = 2048 points 
 Apodization = 14.0 Hz Lorentzian broadening
 B0 Field    = 127.74 MHz 
 Ref Singlet = False
  
 This data has been FFTd to be in the FREQUENCY domain
 
 $NMID ID='ETA'
 FMTDAT='(2E16.6)'
 VOLUME=1.0
 TRAMP=1.0
 $END
    2.253345E+00    7.956210E+00
    2.260025E+00    8.016547E+00
    2.266876E+00    8.077811E+00
    2.273903E+00    8.140024E+00
    2.281112E+00    8.203210E+00
    2.288511E+00    8.267392E+00
    2.296105E+00    8.332598E+00
    2.303903E+00    8.398852E+00
    2.311911E+00    8.466181E+00
    2.320138E+00    8.534614E+00
    2.328593E+00    8.604178E+00
    2.337283E+00    8.674904E+00
    2.346218E+00    8.746823E+00
    2.355407E+00    8.819966E+00
    2.364860E+00    8.894366E+00
    2.374587E+00    8.970058E+00
    2.384600E+00    9.047078E+00
    2.394909E+00    9.125462E+00
    2.405527E+00    9.205250E+00
    2.416465E+00    9.286482E+00
    2.427739E+00    9.369198E+00
    2.439361E+00    9.453443E+00
    2.451345E+00    9.539261E+00
    2.463708E+00    9.626700E+00
    2.476466E+00    9.715808E+00
    2.489636E+00    9.806637E+00
    2.503237E+00    9.899239E+00
    2.517288E+00    9.993669E+00
    2.531810E+00    1.008999E+01
    2.546824E+00    1.018825E+01
    2.562353E+00    1.028852E+01
    2.578423E+00    1.039087E+01
    2.595058E+00    1.049536E+01
    2.612287E+00    1.060207E+01
    2.630138E+00    1.071106E+01
    2.648642E+00    1.082242E+01
    2.667833E+00    1.093623E+01
    2.687745E+00    1.105258E+01
    2.708415E+00    1.117155E+01
    2.729884E+00    1.129323E+01
    2.752194E+00    1.141774E+01
    2.775389E+00    1.154516E+01
    2.799518E+00    1.167562E+01
    2.824632E+00    1.180921E+01
    2.850787E+00    1.194608E+01
    2.878042E+00    1.208633E+01
    2.906460E+00    1.223010E+01
    2.936108E+00    1.237754E+01
    2.967060E+00    1.252879E+01
    2.999395E+00    1.268401E+01
    3.033197E+00    1.284336E+01
    3.068556E+00    1.300701E+01
    3.105573E+00    1.317516E+01
    3.144352E+00    1.334799E+01
    3.185008E+00    1.352571E+01
    3.227667E+00    1.370854E+01
    3.272462E+00    1.389671E+01
    3.319540E+00    1.409047E+01
    3.369060E+00    1.429007E+01
    3.421196E+00    1.449580E+01
    3.476136E+00    1.470795E+01
    3.534087E+00    1.492682E+01
    3.595274E+00    1.515277E+01
    3.659943E+00    1.538613E+01
    3.728365E+00    1.562730E+01
    3.800837E+00    1.587667E+01
    3.877687E+00    1.613469E+01
    3.959274E+00    1.640181E+01
    4.045998E+00    1.667853E+01
    4.138299E+00    1.696539E+01
    4.236666E+00    1.726295E+01
    4.341640E+00    1.757183E+01
    4.453827E+00    1.789267E+01
    4.573899E+00    1.822619E+01
    4.702612E+00    1.857315E+01
    4.840809E+00    1.893435E+01
    4.989440E+00    1.931068E+01
    5.149576E+00    1.970307E+01
    5.322422E+00    2.011253E+01
    5.509345E+00    2.054015E+01
    5.711900E+00    2.098710E+01
    5.931852E+00    2.145461E+01
    6.171224E+00    2.194403E+01
    6.432327E+00    2.245678E+01
    6.717822E+00    2.299436E+01
    7.030774E+00    2.355837E+01
    7.374729E+00    2.415046E+01
    7.753800E+00    2.477236E+01
    8.172779E+00    2.542581E+01
    8.637258E+00    2.611253E+01
    9.153790E+00    2.683417E+01
    9.730070E+00    2.759218E+01
    1.037516E+01    2.838769E+01
    1.109974E+01    2.922124E+01
    1.191641E+01    3.009255E+01
    1.284005E+01    3.099999E+01
    1.388812E+01    3.193997E+01
    1.508104E+01    3.290601E+01
    1.644240E+01    3.388746E+01
    1.799891E+01    3.486773E+01
    1.977987E+01    3.582190E+01
    2.181552E+01    3.671379E+01
    2.413385E+01    3.749254E+01
    2.675464E+01    3.808963E+01
    2.968008E+01    3.841788E+01
    3.288222E+01    3.837593E+01
    3.629044E+01    3.786213E+01
    3.978756E+01    3.680010E+01
    4.322678E+01    3.516895E+01
    4.647441E+01    3.301666E+01
    4.945726E+01    3.043161E+01
    5.216914E+01    2.747730E+01
    5.461192E+01    2.414486E+01
    5.671419E+01    2.038241E+01
    5.831152E+01    1.619095E+01
    5.922413E+01    1.170124E+01
    5.937402E+01    7.151817E+00
    5.883837E+01    2.775520E+00
    5.778936E+01   -1.313041E+00
    5.636907E+01   -5.136291E+00
    5.460256E+01   -8.766177E+00
    5.241821E+01   -1.220651E+01
    4.975158E+01   -1.534482E+01
    4.663822E+01   -1.800647E+01
    4.322410E+01   -2.005116E+01
    3.970698E+01   -2.143222E+01
    3.626877E+01   -2.219454E+01
    3.303837E+01   -2.243791E+01
    3.008685E+01   -2.227895E+01
    2.743975E+01   -2.182646E+01
    2.509306E+01   -2.117060E+01
    2.302652E+01   -2.038097E+01
    2.121272E+01   -1.950880E+01
    1.962264E+01   -1.859058E+01
    1.822863E+01   -1.765164E+01
    1.700592E+01   -1.670931E+01
    1.593293E+01   -1.577548E+01
    1.499110E+01   -1.485847E+01
    1.416411E+01   -1.396434E+01
    1.343729E+01   -1.309730E+01
    1.279720E+01   -1.225978E+01
    1.223183E+01   -1.145245E+01
    1.173084E+01   -1.067453E+01
    1.128565E+01   -9.924296E+00
    1.088932E+01   -9.199633E+00
    1.053622E+01   -8.498329E+00
    1.022175E+01   -7.818253E+00
    9.942086E+00   -7.157410E+00
    9.694025E+00   -6.513936E+00
    9.474844E+00   -5.886087E+00
    9.282224E+00   -5.272215E+00
    9.114187E+00   -4.670753E+00
    8.969054E+00   -4.080202E+00
    8.845403E+00   -3.499121E+00
    8.742048E+00   -2.926113E+00
    8.658013E+00   -2.359825E+00
    8.592515E+00   -1.798932E+00
    8.544954E+00   -1.242141E+00
    8.514896E+00   -6.881763E-01
    8.502068E+00   -1.357777E-01
    8.506354E+00    4.163079E-01
    8.527791E+00    9.693324E-01
    8.566572E+00    1.524553E+00
    8.623051E+00    2.083237E+00
    8.697743E+00    2.646669E+00
    8.791341E+00    3.216156E+00
    8.904719E+00    3.793036E+00
    9.038955E+00    4.378681E+00
    9.195348E+00    4.974509E+00
    9.375443E+00    5.581991E+00
    9.581063E+00    6.202658E+00
    9.814348E+00    6.838115E+00
