 Vespa-Simulation Mixed Metabolite Output
 This file was generated by Vespa-Simulation. You can learn about and download Vespa here:
https://github.com/vespa-mrs/vespa/tree/main/vespa

 
 Output Path/Filename = /home/stud/casperc/bhome/Project1(DeepFit)/DeepFit-data-generation/DeepFitData_TE_20_lw14_2048p
 Output Loop Values = (1,1,1)  ( Loop 1 = 10, Loop 2 = 10, Loop3 Inactive )
 Output Comment
 ---------------------------------------------------------------------------
 
 
 Experiment Information
 ---------------------------------------------------------------------------
 --- Experiment 18b0168e-f5f0-4bd4-8d52-da93aba06c60 ---
 Name: SyntheticDataSetDeepFitTE20
 Public: False
 Created: 2024-10-08T09:55:07
 Comment (abbr.): 
 PI: Casper Cappelen
 b0: 127.740000
 Peak Search PPM low/high: -15.000000 / 15.000000
 Blend tol. PPM/phase: 0.001500 / 50.000000
 Pulse seq.: 43be13ae-de9a-40a1-9a2d-c872d8bjs100 (PRESS Ideal)
 0 User static parameters: 
 22 Metabolites: 2-hydroxyglutarate, GPC-pcholine2, NAAG-truncated, alanine, choline-trimethyl, creatine, ethanolamine, gaba, glucose-beta, glutamate, glutamine, glutathione-glutamate, glutathione-glycine-cysteine, glycine, lactate, myo-inositol, n-acetylaspartate, phosphocreatine, phosphorylcholine-trimethyl, phosphorylethanolamine, pyruvate, taurine
 22 Simulations: (not shown)
 
 Metabolite Formatting Information
 ---------------------------------------------------------------------------
 Name=2-hydroxyglutarate Abbr=2HG Scale=1.0 Shift=0.0 PPM Start=-3.1207465171441986 PPM End=12.528391440425866
 Name=GPC-pcholine2 Abbr=GPC Scale=1.0 Shift=0.0 PPM Start=-3.1207465171441986 PPM End=12.528391440425866
 Name=NAAG-truncated Abbr=NAAG Scale=1.0 Shift=0.0 PPM Start=-3.1207465171441986 PPM End=12.528391440425866
 Name=alanine Abbr=Ala Scale=1.0 Shift=0.0 PPM Start=-3.1207465171441986 PPM End=12.528391440425866
 Name=choline-trimethyl Abbr=Cho Scale=1.0 Shift=0.0 PPM Start=-3.1207465171441986 PPM End=12.528391440425866
 Name=creatine Abbr=Cr Scale=1.0 Shift=0.0 PPM Start=-3.1207465171441986 PPM End=12.528391440425866
 Name=ethanolamine Abbr=ETA Scale=1.0 Shift=0.0 PPM Start=-3.1207465171441986 PPM End=12.528391440425866
 Name=gaba Abbr=GABA Scale=1.0 Shift=0.0 PPM Start=-3.1207465171441986 PPM End=12.528391440425866
 Name=glucose-beta Abbr=Glc Scale=1.0 Shift=0.0 PPM Start=-3.1207465171441986 PPM End=12.528391440425866
 Name=glutamate Abbr=Glu Scale=1.0 Shift=0.0 PPM Start=-3.1207465171441986 PPM End=12.528391440425866
 Name=glutamine Abbr=Gln Scale=1.0 Shift=0.0 PPM Start=-3.1207465171441986 PPM End=12.528391440425866
 Name=glycine Abbr=Gly Scale=1.0 Shift=0.0 PPM Start=-3.1207465171441986 PPM End=12.528391440425866
 Name=lactate Abbr=Lac Scale=1.0 Shift=0.0 PPM Start=-3.1207465171441986 PPM End=12.528391440425866
 Name=myo-inositol Abbr=mI Scale=1.0 Shift=0.0 PPM Start=-3.1207465171441986 PPM End=12.528391440425866
 Name=n-acetylaspartate Abbr=NAA Scale=1.0 Shift=0.0 PPM Start=-3.1207465171441986 PPM End=12.528391440425866
 Name=phosphocreatine Abbr=PCr Scale=1.0 Shift=0.0 PPM Start=-3.1207465171441986 PPM End=12.528391440425866
 Name=phosphorylcholine-trimethyl Abbr=PCho Scale=1.0 Shift=0.0 PPM Start=-3.1207465171441986 PPM End=12.528391440425866
 Name=phosphorylethanolamine Abbr=PE Scale=1.0 Shift=0.0 PPM Start=-3.1207465171441986 PPM End=12.528391440425866
 Name=pyruvate Abbr=Pyr Scale=1.0 Shift=0.0 PPM Start=-3.1207465171441986 PPM End=12.528391440425866
 Name=taurine Abbr=Tau Scale=1.0 Shift=0.0 PPM Start=-3.1207465171441986 PPM End=12.528391440425866
 Name=glutathione-glutamate+glutathione-glycine-cysteine Abbr=GSH Scale=1.0 Shift=0.0 PPM Start=-3.1207565171441987 PPM End=12.528
   Mixture of [metab*scale] = glutathione-glutamate*1.000000 + glutathione-glycine-cysteine*1.000000
 
 ===========================================================================
 This LCModel format RAW file was created using the 
 Vespa-Simulation spectral simulation program using 
 the following settings and parameters 
 
 Sweep Width = 2000.0 Hz 
 Vector Size = 2048 points 
 Apodization = 14.0 Hz Lorentzian broadening
 B0 Field    = 127.74 MHz 
 Ref Singlet = False
  
 $NMID ID='GABA'
 FMTDAT='(2E16.6)'
 VOLUME=1.0
 TRAMP=1.0
 $END
    4.688837E+00    7.571226E-02
    2.635542E+00    3.670632E+00
   -1.299251E+00    4.013742E+00
   -3.625219E+00    1.180891E+00
   -2.670515E+00   -1.987313E+00
    1.208408E-01   -2.796964E+00
    1.962336E+00   -1.124533E+00
    1.504892E+00    9.102078E-01
   -1.784786E-01    1.335214E+00
   -1.084970E+00    1.714347E-01
   -4.133726E-01   -9.713405E-01
    8.524179E-01   -7.865413E-01
    1.225564E+00    4.551701E-01
    2.905431E-01    1.402437E+00
   -1.025298E+00    1.104246E+00
   -1.518812E+00   -1.353984E-01
   -8.471187E-01   -1.227255E+00
    3.400461E-01   -1.376568E+00
    1.150325E+00   -6.497096E-01
    1.175415E+00    3.227313E-01
    5.901387E-01    9.620617E-01
   -1.932295E-01    1.045079E+00
   -8.113952E-01    6.263319E-01
   -1.005012E+00   -8.986553E-02
   -6.504486E-01   -7.623755E-01
    1.016729E-01   -9.856347E-01
    7.826774E-01   -5.641190E-01
    8.890381E-01    2.297812E-01
    3.351106E-01    7.816625E-01
   -3.989968E-01    6.530031E-01
   -6.709244E-01    1.179072E-02
   -2.871575E-01   -5.053951E-01
    3.045653E-01   -4.146926E-01
    4.714836E-01    1.314339E-01
    4.787235E-02    5.099143E-01
   -4.950407E-01    2.820596E-01
   -5.435510E-01   -3.417435E-01
    1.285071E-02   -7.126058E-01
    6.536033E-01   -4.096742E-01
    7.447347E-01    3.242031E-01
    1.687544E-01    8.153961E-01
   -5.631352E-01    6.128638E-01
   -8.070536E-01   -9.273040E-02
   -3.829202E-01   -6.741284E-01
    2.976233E-01   -6.603428E-01
    6.492948E-01   -1.348379E-01
    4.387618E-01    4.029349E-01
   -6.687186E-02    5.216111E-01
   -4.063085E-01    2.098843E-01
   -3.443520E-01   -1.899733E-01
   -2.289047E-02   -3.357162E-01
    2.349948E-01   -1.682123E-01
    2.307054E-01    1.010837E-01
    2.585746E-02    2.235989E-01
   -1.654095E-01    1.250343E-01
   -1.828718E-01   -7.195441E-02
   -3.738610E-02   -1.865413E-01
    1.305606E-01   -1.332862E-01
    1.819222E-01    2.846579E-02
    8.425287E-02    1.614434E-01
   -7.722660E-02    1.626394E-01
   -1.739045E-01    3.665405E-02
   -1.324948E-01   -1.144128E-01
    1.127916E-02   -1.716592E-01
    1.416287E-01   -9.165545E-02
    1.543266E-01    5.888988E-02
    4.138545E-02    1.562310E-01
   -1.013804E-01    1.213832E-01
   -1.542905E-01   -1.322667E-02
   -7.559757E-02   -1.315430E-01
    6.366044E-02   -1.342828E-01
    1.433083E-01   -2.394925E-02
    9.925238E-02    1.008346E-01
   -2.407563E-02    1.347481E-01
   -1.184672E-01    5.643336E-02
   -1.090832E-01   -5.966547E-02
   -1.487207E-02   -1.152023E-01
    7.748918E-02   -7.342527E-02
    9.466885E-02    1.760033E-02
    3.615896E-02    7.699761E-02
   -3.653591E-02    6.373534E-02
   -6.183306E-02    4.332482E-03
   -3.002798E-02   -4.152989E-02
    1.796425E-02   -3.802504E-02
    3.538561E-02    1.852310E-04
    1.188927E-02    2.983811E-02
   -2.310638E-02    2.254152E-02
   -3.280296E-02   -1.152386E-02
   -7.506710E-03   -3.743843E-02
    2.912166E-02   -2.958726E-02
    4.375729E-02    6.166650E-03
    2.308911E-02    3.970189E-02
   -1.626306E-02    4.369316E-02
   -4.350998E-02    1.574202E-02
   -3.927119E-02   -2.184665E-02
   -9.276520E-03   -4.171963E-02
    2.300224E-02   -3.249315E-02
    3.601553E-02   -4.682861E-03
    2.509405E-02    2.055420E-02
    2.270521E-03    2.825695E-02
   -1.580479E-02    1.836595E-02
   -2.017945E-02    1.749819E-03
   -1.304294E-02   -1.023532E-02
   -2.402904E-03   -1.311833E-02
    5.188616E-03   -9.273516E-03
    7.815697E-03   -3.336107E-03
    6.744724E-03    1.572657E-03
    3.789205E-03    4.386631E-03
    3.013097E-04    4.930186E-03
   -2.469296E-03    3.385896E-03
   -3.378752E-03    6.902398E-04
   -2.226215E-03   -1.499585E-03
   -2.087180E-04   -1.917513E-03
    9.867742E-04   -7.886708E-04
    6.883936E-04    4.597909E-04
   -3.054448E-04    6.760562E-04
   -8.048497E-04    2.048877E-05
   -5.454993E-04   -5.461810E-04
   -2.219472E-04   -5.896045E-04
   -3.055109E-04   -6.767559E-04
   -1.992856E-04   -1.407694E-03
    1.097668E-03   -2.207345E-03
    3.447129E-03   -1.484880E-03
    4.943788E-03    1.698054E-03
    3.214027E-03    6.042188E-03
   -2.265297E-03    8.263247E-03
   -8.870861E-03    5.373928E-03
   -1.194773E-02   -2.610368E-03
   -7.906052E-03   -1.169429E-02
    2.689028E-03   -1.577082E-02
    1.435152E-02   -1.058333E-02
    1.937698E-02    2.629730E-03
    1.295337E-02    1.664053E-02
   -2.608871E-03    2.218428E-02
   -1.815690E-02    1.443944E-02
   -2.341834E-02   -2.636775E-03
   -1.458346E-02   -1.822798E-02
    2.366516E-03   -2.233039E-02
    1.603675E-02   -1.334113E-02
    1.854258E-02    1.082228E-03
    1.125450E-02    1.095115E-02
    2.075254E-03    1.236648E-02
   -2.929433E-03    9.373931E-03
   -4.901550E-03    7.667839E-03
   -8.873169E-03    7.187810E-03
   -1.550805E-02    2.207443E-03
   -1.770581E-02   -1.049831E-02
   -7.318395E-03   -2.443063E-02
    1.408775E-02   -2.650111E-02
    3.246899E-02   -9.452456E-03
    3.172281E-02    1.842807E-02
    8.758317E-03    3.744326E-02
   -2.158287E-02    3.249696E-02
   -3.776057E-02    6.519997E-03
   -2.929448E-02   -2.162583E-02
   -4.669172E-03   -3.307429E-02
    1.745664E-02   -2.376776E-02
    2.448776E-02   -4.939599E-03
    1.805818E-02    9.356714E-03
    8.064131E-03    1.415236E-02
    1.035060E-03    1.387558E-02
   -4.406126E-03    1.338863E-02
   -1.176747E-02    1.134788E-02
   -1.913666E-02    3.173168E-03
   -1.946019E-02   -1.094573E-02
   -8.346867E-03   -2.321789E-02
    9.776242E-03   -2.436902E-02
    2.422804E-02   -1.213423E-02
    2.652557E-02    6.729736E-03
    1.607923E-02    2.214563E-02
   -1.308668E-03    2.745008E-02
   -1.834714E-02    2.123391E-02
   -2.878061E-02    5.511396E-03
   -2.735370E-02   -1.489940E-02
