 Vespa-Simulation Mixed Metabolite Output
 This file was generated by Vespa-Simulation. You can learn about and download Vespa here:
https://github.com/vespa-mrs/vespa/tree/main/vespa

 
 Output Path/Filename = /home/stud/casperc/bhome/Project1(DeepFit)/DeepFit-data-generation/DeepFitData_TE_20_lw14_2048p
 Output Loop Values = (1,1,1)  ( Loop 1 = 10, Loop 2 = 10, Loop3 Inactive )
 Output Comment
 ---------------------------------------------------------------------------
 
 
 Experiment Information
 ---------------------------------------------------------------------------
 --- Experiment 18b0168e-f5f0-4bd4-8d52-da93aba06c60 ---
 Name: SyntheticDataSetDeepFitTE20
 Public: False
 Created: 2024-10-08T09:55:07
 Comment (abbr.): 
 PI: Casper Cappelen
 b0: 127.740000
 Peak Search PPM low/high: -15.000000 / 15.000000
 Blend tol. PPM/phase: 0.001500 / 50.000000
 Pulse seq.: 43be13ae-de9a-40a1-9a2d-c872d8bjs100 (PRESS Ideal)
 0 User static parameters: 
 22 Metabolites: 2-hydroxyglutarate, GPC-pcholine2, NAAG-truncated, alanine, choline-trimethyl, creatine, ethanolamine, gaba, glucose-beta, glutamate, glutamine, glutathione-glutamate, glutathione-glycine-cysteine, glycine, lactate, myo-inositol, n-acetylaspartate, phosphocreatine, phosphorylcholine-trimethyl, phosphorylethanolamine, pyruvate, taurine
 22 Simulations: (not shown)
 
 Metabolite Formatting Information
 ---------------------------------------------------------------------------
 Name=2-hydroxyglutarate Abbr=2HG Scale=1.0 Shift=0.0 PPM Start=-3.1207465171441986 PPM End=12.528391440425866
 Name=GPC-pcholine2 Abbr=GPC Scale=1.0 Shift=0.0 PPM Start=-3.1207465171441986 PPM End=12.528391440425866
 Name=NAAG-truncated Abbr=NAAG Scale=1.0 Shift=0.0 PPM Start=-3.1207465171441986 PPM End=12.528391440425866
 Name=alanine Abbr=Ala Scale=1.0 Shift=0.0 PPM Start=-3.1207465171441986 PPM End=12.528391440425866
 Name=choline-trimethyl Abbr=Cho Scale=1.0 Shift=0.0 PPM Start=-3.1207465171441986 PPM End=12.528391440425866
 Name=creatine Abbr=Cr Scale=1.0 Shift=0.0 PPM Start=-3.1207465171441986 PPM End=12.528391440425866
 Name=ethanolamine Abbr=ETA Scale=1.0 Shift=0.0 PPM Start=-3.1207465171441986 PPM End=12.528391440425866
 Name=gaba Abbr=GABA Scale=1.0 Shift=0.0 PPM Start=-3.1207465171441986 PPM End=12.528391440425866
 Name=glucose-beta Abbr=Glc Scale=1.0 Shift=0.0 PPM Start=-3.1207465171441986 PPM End=12.528391440425866
 Name=glutamate Abbr=Glu Scale=1.0 Shift=0.0 PPM Start=-3.1207465171441986 PPM End=12.528391440425866
 Name=glutamine Abbr=Gln Scale=1.0 Shift=0.0 PPM Start=-3.1207465171441986 PPM End=12.528391440425866
 Name=glycine Abbr=Gly Scale=1.0 Shift=0.0 PPM Start=-3.1207465171441986 PPM End=12.528391440425866
 Name=lactate Abbr=Lac Scale=1.0 Shift=0.0 PPM Start=-3.1207465171441986 PPM End=12.528391440425866
 Name=myo-inositol Abbr=mI Scale=1.0 Shift=0.0 PPM Start=-3.1207465171441986 PPM End=12.528391440425866
 Name=n-acetylaspartate Abbr=NAA Scale=1.0 Shift=0.0 PPM Start=-3.1207465171441986 PPM End=12.528391440425866
 Name=phosphocreatine Abbr=PCr Scale=1.0 Shift=0.0 PPM Start=-3.1207465171441986 PPM End=12.528391440425866
 Name=phosphorylcholine-trimethyl Abbr=PCho Scale=1.0 Shift=0.0 PPM Start=-3.1207465171441986 PPM End=12.528391440425866
 Name=phosphorylethanolamine Abbr=PE Scale=1.0 Shift=0.0 PPM Start=-3.1207465171441986 PPM End=12.528391440425866
 Name=pyruvate Abbr=Pyr Scale=1.0 Shift=0.0 PPM Start=-3.1207465171441986 PPM End=12.528391440425866
 Name=taurine Abbr=Tau Scale=1.0 Shift=0.0 PPM Start=-3.1207465171441986 PPM End=12.528391440425866
 Name=glutathione-glutamate+glutathione-glycine-cysteine Abbr=GSH Scale=1.0 Shift=0.0 PPM Start=-3.1207565171441987 PPM End=12.528
   Mixture of [metab*scale] = glutathione-glutamate*1.000000 + glutathione-glycine-cysteine*1.000000
 
 ===========================================================================
 This LCModel format RAW file was created using the 
 Vespa-Simulation spectral simulation program using 
 the following settings and parameters 
 
 Sweep Width = 2000.0 Hz 
 Vector Size = 2048 points 
 Apodization = 14.0 Hz Lorentzian broadening
 B0 Field    = 127.74 MHz 
 Ref Singlet = False
  
 This data has been FFTd to be in the FREQUENCY domain
 
 $NMID ID='GABA'
 FMTDAT='(2E16.6)'
 VOLUME=1.0
 TRAMP=1.0
 $END
    2.420129E+00    4.916953E+00
    2.420977E+00    4.937108E+00
    2.421839E+00    4.957406E+00
    2.422714E+00    4.977847E+00
    2.423603E+00    4.998434E+00
    2.424504E+00    5.019167E+00
    2.425419E+00    5.040050E+00
    2.426347E+00    5.061083E+00
    2.427288E+00    5.082270E+00
    2.428244E+00    5.103612E+00
    2.429215E+00    5.125111E+00
    2.430200E+00    5.146768E+00
    2.431202E+00    5.168586E+00
    2.432218E+00    5.190566E+00
    2.433250E+00    5.212711E+00
    2.434298E+00    5.235022E+00
    2.435361E+00    5.257502E+00
    2.436441E+00    5.280154E+00
    2.437538E+00    5.302980E+00
    2.438654E+00    5.325981E+00
    2.439788E+00    5.349159E+00
    2.440940E+00    5.372516E+00
    2.442110E+00    5.396054E+00
    2.443297E+00    5.419777E+00
    2.444502E+00    5.443688E+00
    2.445727E+00    5.467790E+00
    2.446972E+00    5.492087E+00
    2.448241E+00    5.516578E+00
    2.449534E+00    5.541265E+00
    2.450849E+00    5.566148E+00
    2.452184E+00    5.591230E+00
    2.453538E+00    5.616514E+00
    2.454909E+00    5.642008E+00
    2.456301E+00    5.667716E+00
    2.457715E+00    5.693642E+00
    2.459155E+00    5.719789E+00
    2.460624E+00    5.746158E+00
    2.462122E+00    5.772751E+00
    2.463650E+00    5.799566E+00
    2.465205E+00    5.826608E+00
    2.466788E+00    5.853879E+00
    2.468395E+00    5.881382E+00
    2.470028E+00    5.909122E+00
    2.471685E+00    5.937106E+00
    2.473368E+00    5.965338E+00
    2.475080E+00    5.993824E+00
    2.476824E+00    6.022568E+00
    2.478603E+00    6.051573E+00
    2.480419E+00    6.080838E+00
    2.482272E+00    6.110365E+00
    2.484159E+00    6.140158E+00
    2.486080E+00    6.170220E+00
    2.488033E+00    6.200557E+00
    2.490020E+00    6.231177E+00
    2.492042E+00    6.262084E+00
    2.494102E+00    6.293283E+00
    2.496202E+00    6.324778E+00
    2.498343E+00    6.356572E+00
    2.500526E+00    6.388669E+00
    2.502750E+00    6.421074E+00
    2.505016E+00    6.453793E+00
    2.507325E+00    6.486831E+00
    2.509678E+00    6.520194E+00
    2.512079E+00    6.553888E+00
    2.514529E+00    6.587917E+00
    2.517028E+00    6.622286E+00
    2.519578E+00    6.656999E+00
    2.522178E+00    6.692062E+00
    2.524829E+00    6.727483E+00
    2.527533E+00    6.763268E+00
    2.530292E+00    6.799424E+00
    2.533109E+00    6.835958E+00
    2.535986E+00    6.872874E+00
    2.538925E+00    6.910179E+00
    2.541925E+00    6.947876E+00
    2.544987E+00    6.985975E+00
    2.548111E+00    7.024483E+00
    2.551298E+00    7.063410E+00
    2.554553E+00    7.102765E+00
    2.557880E+00    7.142557E+00
    2.561282E+00    7.182791E+00
    2.564762E+00    7.223473E+00
    2.568321E+00    7.264610E+00
    2.571960E+00    7.306209E+00
    2.575679E+00    7.348278E+00
    2.579477E+00    7.390830E+00
    2.583358E+00    7.433874E+00
    2.587325E+00    7.477423E+00
    2.591382E+00    7.521486E+00
    2.595534E+00    7.566074E+00
    2.599785E+00    7.611195E+00
    2.604138E+00    7.656859E+00
    2.608595E+00    7.703075E+00
    2.613160E+00    7.749855E+00
    2.617834E+00    7.797208E+00
    2.622619E+00    7.845146E+00
    2.627518E+00    7.893685E+00
    2.632535E+00    7.942836E+00
    2.637674E+00    7.992615E+00
    2.642942E+00    8.043035E+00
    2.648343E+00    8.094109E+00
    2.653883E+00    8.145850E+00
    2.659567E+00    8.198271E+00
    2.665398E+00    8.251386E+00
    2.671380E+00    8.305210E+00
    2.677517E+00    8.359759E+00
    2.683815E+00    8.415051E+00
    2.690279E+00    8.471103E+00
    2.696916E+00    8.527934E+00
    2.703734E+00    8.585560E+00
    2.710740E+00    8.644000E+00
    2.717938E+00    8.703270E+00
    2.725337E+00    8.763392E+00
    2.732941E+00    8.824385E+00
    2.740760E+00    8.886272E+00
    2.748801E+00    8.949074E+00
    2.757074E+00    9.012814E+00
    2.765588E+00    9.077514E+00
    2.774353E+00    9.143200E+00
    2.783377E+00    9.209893E+00
    2.792671E+00    9.277619E+00
    2.802244E+00    9.346406E+00
    2.812107E+00    9.416280E+00
    2.822271E+00    9.487272E+00
    2.832749E+00    9.559411E+00
    2.843554E+00    9.632728E+00
    2.854699E+00    9.707256E+00
    2.866200E+00    9.783026E+00
    2.878071E+00    9.860073E+00
    2.890328E+00    9.938432E+00
    2.902985E+00    1.001814E+01
    2.916061E+00    1.009923E+01
    2.929573E+00    1.018176E+01
    2.943537E+00    1.026575E+01
    2.957974E+00    1.035125E+01
    2.972903E+00    1.043831E+01
    2.988344E+00    1.052698E+01
    3.004322E+00    1.061731E+01
    3.020860E+00    1.070935E+01
    3.037983E+00    1.080316E+01
    3.055718E+00    1.089880E+01
    3.074092E+00    1.099633E+01
    3.093133E+00    1.109581E+01
    3.112872E+00    1.119732E+01
    3.133343E+00    1.130094E+01
    3.154584E+00    1.140675E+01
    3.176641E+00    1.151485E+01
    3.199567E+00    1.162533E+01
    3.223430E+00    1.173829E+01
    3.248307E+00    1.185384E+01
    3.274294E+00    1.197208E+01
    3.301488E+00    1.209308E+01
    3.329982E+00    1.221691E+01
    3.359848E+00    1.234365E+01
    3.391135E+00    1.247338E+01
    3.423901E+00    1.260625E+01
    3.458247E+00    1.274242E+01
    3.494335E+00    1.288206E+01
    3.532374E+00    1.302528E+01
    3.572560E+00    1.317213E+01
    3.615018E+00    1.332262E+01
    3.659788E+00    1.347678E+01
    3.706875E+00    1.363477E+01
    3.756343E+00    1.379684E+01
    3.808372E+00    1.396327E+01
    3.863247E+00    1.413432E+01
    3.921274E+00    1.431010E+01
    3.982687E+00    1.449068E+01
    4.047602E+00    1.467615E+01
    4.116070E+00    1.486672E+01
    4.188183E+00    1.506278E+01
    4.264174E+00    1.526483E+01
