 Vespa-Simulation Mixed Metabolite Output
 This file was generated by Vespa-Simulation. You can learn about and download Vespa here:
https://github.com/vespa-mrs/vespa/tree/main/vespa

 
 Output Path/Filename = /home/stud/casperc/bhome/Project1(DeepFit)/DeepFit-data-generation/DeepFitData_TE_20_lw14_2048p
 Output Loop Values = (1,1,1)  ( Loop 1 = 10, Loop 2 = 10, Loop3 Inactive )
 Output Comment
 ---------------------------------------------------------------------------
 
 
 Experiment Information
 ---------------------------------------------------------------------------
 --- Experiment 18b0168e-f5f0-4bd4-8d52-da93aba06c60 ---
 Name: SyntheticDataSetDeepFitTE20
 Public: False
 Created: 2024-10-08T09:55:07
 Comment (abbr.): 
 PI: Casper Cappelen
 b0: 127.740000
 Peak Search PPM low/high: -15.000000 / 15.000000
 Blend tol. PPM/phase: 0.001500 / 50.000000
 Pulse seq.: 43be13ae-de9a-40a1-9a2d-c872d8bjs100 (PRESS Ideal)
 0 User static parameters: 
 22 Metabolites: 2-hydroxyglutarate, GPC-pcholine2, NAAG-truncated, alanine, choline-trimethyl, creatine, ethanolamine, gaba, glucose-beta, glutamate, glutamine, glutathione-glutamate, glutathione-glycine-cysteine, glycine, lactate, myo-inositol, n-acetylaspartate, phosphocreatine, phosphorylcholine-trimethyl, phosphorylethanolamine, pyruvate, taurine
 22 Simulations: (not shown)
 
 Metabolite Formatting Information
 ---------------------------------------------------------------------------
 Name=2-hydroxyglutarate Abbr=2HG Scale=1.0 Shift=0.0 PPM Start=-3.1207465171441986 PPM End=12.528391440425866
 Name=GPC-pcholine2 Abbr=GPC Scale=1.0 Shift=0.0 PPM Start=-3.1207465171441986 PPM End=12.528391440425866
 Name=NAAG-truncated Abbr=NAAG Scale=1.0 Shift=0.0 PPM Start=-3.1207465171441986 PPM End=12.528391440425866
 Name=alanine Abbr=Ala Scale=1.0 Shift=0.0 PPM Start=-3.1207465171441986 PPM End=12.528391440425866
 Name=choline-trimethyl Abbr=Cho Scale=1.0 Shift=0.0 PPM Start=-3.1207465171441986 PPM End=12.528391440425866
 Name=creatine Abbr=Cr Scale=1.0 Shift=0.0 PPM Start=-3.1207465171441986 PPM End=12.528391440425866
 Name=ethanolamine Abbr=ETA Scale=1.0 Shift=0.0 PPM Start=-3.1207465171441986 PPM End=12.528391440425866
 Name=gaba Abbr=GABA Scale=1.0 Shift=0.0 PPM Start=-3.1207465171441986 PPM End=12.528391440425866
 Name=glucose-beta Abbr=Glc Scale=1.0 Shift=0.0 PPM Start=-3.1207465171441986 PPM End=12.528391440425866
 Name=glutamate Abbr=Glu Scale=1.0 Shift=0.0 PPM Start=-3.1207465171441986 PPM End=12.528391440425866
 Name=glutamine Abbr=Gln Scale=1.0 Shift=0.0 PPM Start=-3.1207465171441986 PPM End=12.528391440425866
 Name=glycine Abbr=Gly Scale=1.0 Shift=0.0 PPM Start=-3.1207465171441986 PPM End=12.528391440425866
 Name=lactate Abbr=Lac Scale=1.0 Shift=0.0 PPM Start=-3.1207465171441986 PPM End=12.528391440425866
 Name=myo-inositol Abbr=mI Scale=1.0 Shift=0.0 PPM Start=-3.1207465171441986 PPM End=12.528391440425866
 Name=n-acetylaspartate Abbr=NAA Scale=1.0 Shift=0.0 PPM Start=-3.1207465171441986 PPM End=12.528391440425866
 Name=phosphocreatine Abbr=PCr Scale=1.0 Shift=0.0 PPM Start=-3.1207465171441986 PPM End=12.528391440425866
 Name=phosphorylcholine-trimethyl Abbr=PCho Scale=1.0 Shift=0.0 PPM Start=-3.1207465171441986 PPM End=12.528391440425866
 Name=phosphorylethanolamine Abbr=PE Scale=1.0 Shift=0.0 PPM Start=-3.1207465171441986 PPM End=12.528391440425866
 Name=pyruvate Abbr=Pyr Scale=1.0 Shift=0.0 PPM Start=-3.1207465171441986 PPM End=12.528391440425866
 Name=taurine Abbr=Tau Scale=1.0 Shift=0.0 PPM Start=-3.1207465171441986 PPM End=12.528391440425866
 Name=glutathione-glutamate+glutathione-glycine-cysteine Abbr=GSH Scale=1.0 Shift=0.0 PPM Start=-3.1207565171441987 PPM End=12.528
   Mixture of [metab*scale] = glutathione-glutamate*1.000000 + glutathione-glycine-cysteine*1.000000
 
 ===========================================================================
 This LCModel format RAW file was created using the 
 Vespa-Simulation spectral simulation program using 
 the following settings and parameters 
 
 Sweep Width = 2000.0 Hz 
 Vector Size = 2048 points 
 Apodization = 14.0 Hz Lorentzian broadening
 B0 Field    = 127.74 MHz 
 Ref Singlet = False
  
 $NMID ID='Glc'
 FMTDAT='(2E16.6)'
 VOLUME=1.0
 TRAMP=1.0
 $END
    6.687349E+00    7.877319E-03
    5.910013E+00    2.612330E+00
    4.064625E+00    4.514503E+00
    1.634006E+00    5.321334E+00
   -7.871670E-01    4.928723E+00
   -2.649057E+00    3.529312E+00
   -3.581549E+00    1.542655E+00
   -3.472632E+00   -5.083581E-01
   -2.473698E+00   -2.138054E+00
   -9.360246E-01   -3.016692E+00
    6.987984E-01   -3.037653E+00
    2.021001E+00   -2.319797E+00
    2.753716E+00   -1.150715E+00
    2.808017E+00    1.080836E-01
    2.282068E+00    1.124572E+00
    1.410791E+00    1.679503E+00
    4.851613E-01    1.709479E+00
   -2.333844E-01    1.302787E+00
   -5.798653E-01    6.549237E-01
   -5.179689E-01    6.358296E-04
   -1.331319E-01   -4.560322E-01
    4.066648E-01   -5.945238E-01
    9.077753E-01   -4.011761E-01
    1.207778E+00    3.935865E-02
    1.217062E+00    5.783168E-01
    9.359241E-01    1.050254E+00
    4.457682E-01    1.319449E+00
   -1.200013E-01    1.313268E+00
   -6.152756E-01    1.035531E+00
   -9.194491E-01    5.590683E-01
   -9.651957E-01    1.971324E-03
   -7.503468E-01   -5.045011E-01
   -3.332125E-01   -8.477562E-01
    1.854559E-01   -9.580551E-01
    6.881833E-01   -8.206960E-01
    1.067401E+00   -4.750373E-01
    1.247582E+00   -2.190381E-03
    1.198641E+00    4.947402E-01
    9.391479E-01    9.131262E-01
    5.295859E-01    1.171649E+00
    5.794775E-02    1.225384E+00
   -3.793915E-01    1.073086E+00
   -6.973648E-01    7.555078E-01
   -8.391719E-01    3.454783E-01
   -7.869221E-01   -6.812146E-02
   -5.642409E-01   -3.994722E-01
   -2.300996E-01   -5.838873E-01
    1.348595E-01   -5.913264E-01
    4.466297E-01   -4.321200E-01
    6.367702E-01   -1.536947E-01
    6.677265E-01    1.712321E-01
    5.407677E-01    4.621951E-01
    2.946526E-01    6.503159E-01
   -4.720445E-03    6.945132E-01
   -2.812561E-01    5.907673E-01
   -4.677594E-01    3.719722E-01
   -5.225504E-01    9.850494E-02
   -4.391382E-01   -1.579444E-01
   -2.467041E-01   -3.331299E-01
   -1.302420E-03   -3.865214E-01
    2.296341E-01   -3.109643E-01
    3.853456E-01   -1.333066E-01
    4.273833E-01    9.392768E-02
    3.488616E-01    3.073824E-01
    1.749932E-01    4.499672E-01
   -4.487358E-02    4.856826E-01
   -2.513586E-01    4.082197E-01
   -3.910837E-01    2.413117E-01
   -4.305151E-01    3.113069E-02
   -3.638507E-01   -1.669057E-01
   -2.131854E-01   -3.031747E-01
   -2.133468E-02   -3.464927E-01
    1.604251E-01   -2.913507E-01
    2.862067E-01   -1.579397E-01
    3.270815E-01    1.451576E-02
    2.776324E-01    1.790206E-01
    1.559551E-01    2.934079E-01
   -2.469137E-03    3.309272E-01
   -1.549416E-01    2.861163E-01
   -2.629712E-01    1.748609E-01
   -3.018293E-01    2.893729E-02
   -2.659403E-01   -1.131776E-01
   -1.689851E-01   -2.164985E-01
   -3.912661E-02   -2.581918E-01
    8.915658E-02   -2.325077E-01
    1.841848E-01   -1.510155E-01
    2.248898E-01   -3.847263E-02
    2.053602E-01    7.434578E-02
    1.352421E-01    1.588388E-01
    3.621048E-02    1.955783E-01
   -6.432620E-02    1.785628E-01
   -1.405104E-01    1.157800E-01
   -1.744359E-01    2.621766E-02
   -1.600808E-01   -6.563860E-02
   -1.040469E-01   -1.363310E-01
   -2.306054E-02   -1.692684E-01
    6.085774E-02   -1.584395E-01
    1.262624E-01   -1.092879E-01
    1.576345E-01   -3.666138E-02
    1.489427E-01    3.947382E-02
    1.046184E-01    9.930386E-02
    3.789302E-02    1.281366E-01
   -3.296532E-02    1.198070E-01
   -8.947456E-02    7.778327E-02
   -1.175231E-01    1.383302E-02
   -1.106694E-01   -5.528514E-02
   -7.135804E-02   -1.122047E-01
   -9.900968E-03   -1.432232E-01
    5.841829E-02   -1.414834E-01
    1.172964E-01   -1.083031E-01
    1.534110E-01   -5.243249E-02
    1.594440E-01    1.242568E-02
    1.355118E-01    7.117176E-02
    8.870411E-02    1.109789E-01
    3.096215E-02    1.242030E-01
   -2.404656E-02    1.098331E-01
   -6.427907E-02    7.328351E-02
   -8.204449E-02    2.463474E-02
   -7.546801E-02   -2.410205E-02
   -4.846909E-02   -6.199178E-02
   -9.331023E-03   -8.168541E-02
    3.168337E-02   -8.086406E-02
    6.498840E-02   -6.233152E-02
    8.396856E-02   -3.284627E-02
    8.633985E-02   -1.061901E-03
    7.431620E-02    2.485545E-02
    5.361606E-02    3.928172E-02
    3.164146E-02    4.040572E-02
    1.533560E-02    3.040774E-02
    9.291201E-03    1.457156E-02
    1.458161E-02   -3.911635E-04
    2.860436E-02   -8.337514E-03
    4.592470E-02   -5.474095E-03
    5.989177E-02    8.539189E-03
    6.458018E-02    3.044662E-02
    5.654161E-02    5.424671E-02
    3.590155E-02    7.281106E-02
    6.508839E-03    7.984950E-02
   -2.494021E-02    7.171042E-02
   -5.053237E-02    4.852622E-02
   -6.319167E-02    1.441015E-02
   -5.857282E-02   -2.339207E-02
   -3.632119E-02   -5.619280E-02
   -3.529737E-04   -7.598290E-02
    4.193660E-02   -7.744867E-02
    8.138368E-02   -5.935696E-02
    1.092023E-01   -2.496165E-02
    1.191125E-01    1.870347E-02
    1.088458E-01    6.246952E-02
    8.067206E-02    9.720353E-02
    4.080840E-02    1.159560E-01
   -2.121844E-03    1.155418E-01
   -3.921354E-02    9.716371E-02
   -6.334705E-02    6.593432E-02
   -7.078982E-02    2.946535E-02
   -6.185327E-02   -4.097644E-03
   -4.051125E-02   -2.805755E-02
   -1.312536E-02   -3.865232E-02
    1.333920E-02   -3.568603E-02
    3.310303E-02   -2.219440E-02
    4.289825E-02   -3.291145E-03
    4.248530E-02    1.541020E-02
    3.431528E-02    2.935852E-02
    2.247807E-02    3.616277E-02
    1.130503E-02    3.596068E-02
    4.055414E-03    3.101599E-02
    2.063187E-03    2.472932E-02
    4.550227E-03    2.040607E-02
    9.122993E-03    2.017224E-02
    1.272392E-02    2.435528E-02
    1.272949E-02    3.148528E-02
    7.837655E-03    3.887246E-02
   -1.514873E-03    4.354481E-02
   -1.330373E-02    4.323426E-02
