 Vespa-Simulation Mixed Metabolite Output
 This file was generated by Vespa-Simulation. You can learn about and download Vespa here:
https://github.com/vespa-mrs/vespa/tree/main/vespa

 
 Output Path/Filename = /home/stud/casperc/bhome/Project1(DeepFit)/DeepFit-data-generation/DeepFitData_TE_20_lw14_2048p
 Output Loop Values = (1,1,1)  ( Loop 1 = 10, Loop 2 = 10, Loop3 Inactive )
 Output Comment
 ---------------------------------------------------------------------------
 
 
 Experiment Information
 ---------------------------------------------------------------------------
 --- Experiment 18b0168e-f5f0-4bd4-8d52-da93aba06c60 ---
 Name: SyntheticDataSetDeepFitTE20
 Public: False
 Created: 2024-10-08T09:55:07
 Comment (abbr.): 
 PI: Casper Cappelen
 b0: 127.740000
 Peak Search PPM low/high: -15.000000 / 15.000000
 Blend tol. PPM/phase: 0.001500 / 50.000000
 Pulse seq.: 43be13ae-de9a-40a1-9a2d-c872d8bjs100 (PRESS Ideal)
 0 User static parameters: 
 22 Metabolites: 2-hydroxyglutarate, GPC-pcholine2, NAAG-truncated, alanine, choline-trimethyl, creatine, ethanolamine, gaba, glucose-beta, glutamate, glutamine, glutathione-glutamate, glutathione-glycine-cysteine, glycine, lactate, myo-inositol, n-acetylaspartate, phosphocreatine, phosphorylcholine-trimethyl, phosphorylethanolamine, pyruvate, taurine
 22 Simulations: (not shown)
 
 Metabolite Formatting Information
 ---------------------------------------------------------------------------
 Name=2-hydroxyglutarate Abbr=2HG Scale=1.0 Shift=0.0 PPM Start=-3.1207465171441986 PPM End=12.528391440425866
 Name=GPC-pcholine2 Abbr=GPC Scale=1.0 Shift=0.0 PPM Start=-3.1207465171441986 PPM End=12.528391440425866
 Name=NAAG-truncated Abbr=NAAG Scale=1.0 Shift=0.0 PPM Start=-3.1207465171441986 PPM End=12.528391440425866
 Name=alanine Abbr=Ala Scale=1.0 Shift=0.0 PPM Start=-3.1207465171441986 PPM End=12.528391440425866
 Name=choline-trimethyl Abbr=Cho Scale=1.0 Shift=0.0 PPM Start=-3.1207465171441986 PPM End=12.528391440425866
 Name=creatine Abbr=Cr Scale=1.0 Shift=0.0 PPM Start=-3.1207465171441986 PPM End=12.528391440425866
 Name=ethanolamine Abbr=ETA Scale=1.0 Shift=0.0 PPM Start=-3.1207465171441986 PPM End=12.528391440425866
 Name=gaba Abbr=GABA Scale=1.0 Shift=0.0 PPM Start=-3.1207465171441986 PPM End=12.528391440425866
 Name=glucose-beta Abbr=Glc Scale=1.0 Shift=0.0 PPM Start=-3.1207465171441986 PPM End=12.528391440425866
 Name=glutamate Abbr=Glu Scale=1.0 Shift=0.0 PPM Start=-3.1207465171441986 PPM End=12.528391440425866
 Name=glutamine Abbr=Gln Scale=1.0 Shift=0.0 PPM Start=-3.1207465171441986 PPM End=12.528391440425866
 Name=glycine Abbr=Gly Scale=1.0 Shift=0.0 PPM Start=-3.1207465171441986 PPM End=12.528391440425866
 Name=lactate Abbr=Lac Scale=1.0 Shift=0.0 PPM Start=-3.1207465171441986 PPM End=12.528391440425866
 Name=myo-inositol Abbr=mI Scale=1.0 Shift=0.0 PPM Start=-3.1207465171441986 PPM End=12.528391440425866
 Name=n-acetylaspartate Abbr=NAA Scale=1.0 Shift=0.0 PPM Start=-3.1207465171441986 PPM End=12.528391440425866
 Name=phosphocreatine Abbr=PCr Scale=1.0 Shift=0.0 PPM Start=-3.1207465171441986 PPM End=12.528391440425866
 Name=phosphorylcholine-trimethyl Abbr=PCho Scale=1.0 Shift=0.0 PPM Start=-3.1207465171441986 PPM End=12.528391440425866
 Name=phosphorylethanolamine Abbr=PE Scale=1.0 Shift=0.0 PPM Start=-3.1207465171441986 PPM End=12.528391440425866
 Name=pyruvate Abbr=Pyr Scale=1.0 Shift=0.0 PPM Start=-3.1207465171441986 PPM End=12.528391440425866
 Name=taurine Abbr=Tau Scale=1.0 Shift=0.0 PPM Start=-3.1207465171441986 PPM End=12.528391440425866
 Name=glutathione-glutamate+glutathione-glycine-cysteine Abbr=GSH Scale=1.0 Shift=0.0 PPM Start=-3.1207565171441987 PPM End=12.528
   Mixture of [metab*scale] = glutathione-glutamate*1.000000 + glutathione-glycine-cysteine*1.000000
 
 ===========================================================================
 This LCModel format RAW file was created using the 
 Vespa-Simulation spectral simulation program using 
 the following settings and parameters 
 
 Sweep Width = 2000.0 Hz 
 Vector Size = 2048 points 
 Apodization = 14.0 Hz Lorentzian broadening
 B0 Field    = 127.74 MHz 
 Ref Singlet = False
  
 This data has been FFTd to be in the FREQUENCY domain
 
 $NMID ID='Glc'
 FMTDAT='(2E16.6)'
 VOLUME=1.0
 TRAMP=1.0
 $END
    2.118884E+01    2.567208E+01
    2.283224E+01    2.473790E+01
    2.430295E+01    2.339574E+01
    2.541941E+01    2.169828E+01
    2.602104E+01    1.981042E+01
    2.605196E+01    1.799559E+01
    2.562643E+01    1.653215E+01
    2.501612E+01    1.559155E+01
    2.455099E+01    1.515440E+01
    2.449192E+01    1.501351E+01
    2.493809E+01    1.484902E+01
    2.579208E+01    1.433524E+01
    2.678457E+01    1.325161E+01
    2.756200E+01    1.156894E+01
    2.781985E+01    9.465405E+00
    2.741695E+01    7.246790E+00
    2.640163E+01    5.215071E+00
    2.494732E+01    3.569353E+00
    2.325974E+01    2.382563E+00
    2.151207E+01    1.633497E+00
    1.982191E+01    1.252936E+00
    1.825541E+01    1.158798E+00
    1.684134E+01    1.275271E+00
    1.558513E+01    1.540156E+00
    1.447931E+01    1.905768E+00
    1.351040E+01    2.337093E+00
    1.266297E+01    2.809123E+00
    1.192175E+01    3.304312E+00
    1.127265E+01    3.810514E+00
    1.070307E+01    4.319476E+00
    1.020196E+01    4.825773E+00
    9.759849E+00    5.326014E+00
    9.368690E+00    5.818234E+00
    9.021716E+00    6.301431E+00
    8.713259E+00    6.775251E+00
    8.438585E+00    7.239756E+00
    8.193760E+00    7.695262E+00
    7.975508E+00    8.142207E+00
    7.781087E+00    8.581048E+00
    7.608147E+00    9.012215E+00
    7.454610E+00    9.436094E+00
    7.318578E+00    9.853058E+00
    7.198277E+00    1.026352E+01
    7.092039E+00    1.066798E+01
    6.998344E+00    1.106709E+01
    6.915887E+00    1.146164E+01
    6.843631E+00    1.185249E+01
    6.780803E+00    1.224047E+01
    6.726838E+00    1.262630E+01
    6.681272E+00    1.301057E+01
    6.643644E+00    1.339375E+01
    6.613446E+00    1.377631E+01
    6.590158E+00    1.415877E+01
    6.573306E+00    1.454174E+01
    6.562515E+00    1.492590E+01
    6.557526E+00    1.531197E+01
    6.558178E+00    1.570066E+01
    6.564391E+00    1.609264E+01
    6.576147E+00    1.648860E+01
    6.593476E+00    1.688919E+01
    6.616452E+00    1.729507E+01
    6.645191E+00    1.770691E+01
    6.679846E+00    1.812538E+01
    6.720617E+00    1.855117E+01
    6.767749E+00    1.898502E+01
    6.821538E+00    1.942767E+01
    6.882335E+00    1.987990E+01
    6.950559E+00    2.034256E+01
    7.026699E+00    2.081652E+01
    7.111325E+00    2.130271E+01
    7.205107E+00    2.180212E+01
    7.308820E+00    2.231582E+01
    7.423369E+00    2.284493E+01
    7.549810E+00    2.339066E+01
    7.689370E+00    2.395431E+01
    7.843488E+00    2.453725E+01
    8.013847E+00    2.514098E+01
    8.202429E+00    2.576705E+01
    8.411570E+00    2.641715E+01
    8.644038E+00    2.709303E+01
    8.903127E+00    2.779652E+01
    9.192765E+00    2.852946E+01
    9.517659E+00    2.929369E+01
    9.883465E+00    3.009090E+01
    1.029699E+01    3.092253E+01
    1.076645E+01    3.178948E+01
    1.130172E+01    3.269177E+01
    1.191463E+01    3.362801E+01
    1.261922E+01    3.459455E+01
    1.343180E+01    3.558428E+01
    1.437071E+01    3.658498E+01
    1.545527E+01    3.757704E+01
    1.670325E+01    3.853080E+01
    1.812615E+01    3.940416E+01
    1.972119E+01    4.014214E+01
    2.146058E+01    4.068147E+01
    2.328115E+01    4.096407E+01
    2.508240E+01    4.096120E+01
    2.674364E+01    4.070153E+01
    2.816393E+01    4.028573E+01
    2.931012E+01    3.986849E+01
    3.024385E+01    3.960799E+01
    3.110832E+01    3.960832E+01
    3.208400E+01    3.988553E+01
    3.334031E+01    4.036651E+01
    3.500204E+01    4.090754E+01
    3.712968E+01    4.131558E+01
    3.970261E+01    4.136843E+01
    4.259947E+01    4.084288E+01
    4.558456E+01    3.956382E+01
    4.832520E+01    3.747445E+01
    5.046406E+01    3.469957E+01
    5.173710E+01    3.155105E+01
    5.207972E+01    2.844525E+01
    5.165263E+01    2.576374E+01
    5.077078E+01    2.373521E+01
    4.978557E+01    2.239583E+01
    4.898666E+01    2.162416E+01
    4.855375E+01    2.120717E+01
    4.854822E+01    2.090135E+01
    4.892374E+01    2.047914E+01
    4.954603E+01    1.976592E+01
    5.022411E+01    1.866990E+01
    5.075432E+01    1.719609E+01
    5.096520E+01    1.543501E+01
    5.074488E+01    1.353202E+01
    5.004681E+01    1.165671E+01
    4.888771E+01    9.983272E+00
    4.734963E+01    8.672549E+00
    4.557774E+01    7.843252E+00
    4.375648E+01    7.540002E+00
    4.206510E+01    7.721053E+00
    4.063450E+01    8.276520E+00
    3.952507E+01    9.066096E+00
    3.872941E+01    9.957694E+00
    3.819237E+01    1.085425E+01
    3.783713E+01    1.170382E+01
    3.758688E+01    1.249569E+01
    3.737682E+01    1.325112E+01
    3.716092E+01    1.401672E+01
    3.692065E+01    1.485880E+01
    3.667550E+01    1.585063E+01
    3.648469E+01    1.705062E+01
    3.643313E+01    1.848215E+01
    3.660770E+01    2.012712E+01
    3.707657E+01    2.193496E+01
    3.787920E+01    2.383970E+01
    3.902753E+01    2.577767E+01
    4.051636E+01    2.770026E+01
    4.233916E+01    2.957756E+01
    4.450208E+01    3.139048E+01
    4.702865E+01    3.311537E+01
    4.995257E+01    3.470988E+01
    5.330330E+01    3.610758E+01
    5.709218E+01    3.722303E+01
    6.130545E+01    3.796408E+01
    6.590739E+01    3.824539E+01
    7.085260E+01    3.799536E+01
    7.610093E+01    3.715068E+01
    8.162519E+01    3.563689E+01
    8.739950E+01    3.334162E+01
    9.336302E+01    3.009731E+01
    9.936817E+01    2.569261E+01
    1.051354E+02    1.992121E+01
    1.102377E+02    1.266187E+01
    1.141331E+02    3.973795E+00
    1.162620E+02   -5.821507E+00
    1.162049E+02   -1.612288E+01
    1.138462E+02   -2.614655E+01
    1.094467E+02   -3.512614E+01
    1.035674E+02   -4.251920E+01
    9.688549E+01   -4.810982E+01
