 Vespa-Simulation Mixed Metabolite Output
 This file was generated by Vespa-Simulation. You can learn about and download Vespa here:
https://github.com/vespa-mrs/vespa/tree/main/vespa

 
 Output Path/Filename = /home/stud/casperc/bhome/Project1(DeepFit)/DeepFit-data-generation/DeepFitData_TE_20_lw14_2048p
 Output Loop Values = (1,1,1)  ( Loop 1 = 10, Loop 2 = 10, Loop3 Inactive )
 Output Comment
 ---------------------------------------------------------------------------
 
 
 Experiment Information
 ---------------------------------------------------------------------------
 --- Experiment 18b0168e-f5f0-4bd4-8d52-da93aba06c60 ---
 Name: SyntheticDataSetDeepFitTE20
 Public: False
 Created: 2024-10-08T09:55:07
 Comment (abbr.): 
 PI: Casper Cappelen
 b0: 127.740000
 Peak Search PPM low/high: -15.000000 / 15.000000
 Blend tol. PPM/phase: 0.001500 / 50.000000
 Pulse seq.: 43be13ae-de9a-40a1-9a2d-c872d8bjs100 (PRESS Ideal)
 0 User static parameters: 
 22 Metabolites: 2-hydroxyglutarate, GPC-pcholine2, NAAG-truncated, alanine, choline-trimethyl, creatine, ethanolamine, gaba, glucose-beta, glutamate, glutamine, glutathione-glutamate, glutathione-glycine-cysteine, glycine, lactate, myo-inositol, n-acetylaspartate, phosphocreatine, phosphorylcholine-trimethyl, phosphorylethanolamine, pyruvate, taurine
 22 Simulations: (not shown)
 
 Metabolite Formatting Information
 ---------------------------------------------------------------------------
 Name=2-hydroxyglutarate Abbr=2HG Scale=1.0 Shift=0.0 PPM Start=-3.1207465171441986 PPM End=12.528391440425866
 Name=GPC-pcholine2 Abbr=GPC Scale=1.0 Shift=0.0 PPM Start=-3.1207465171441986 PPM End=12.528391440425866
 Name=NAAG-truncated Abbr=NAAG Scale=1.0 Shift=0.0 PPM Start=-3.1207465171441986 PPM End=12.528391440425866
 Name=alanine Abbr=Ala Scale=1.0 Shift=0.0 PPM Start=-3.1207465171441986 PPM End=12.528391440425866
 Name=choline-trimethyl Abbr=Cho Scale=1.0 Shift=0.0 PPM Start=-3.1207465171441986 PPM End=12.528391440425866
 Name=creatine Abbr=Cr Scale=1.0 Shift=0.0 PPM Start=-3.1207465171441986 PPM End=12.528391440425866
 Name=ethanolamine Abbr=ETA Scale=1.0 Shift=0.0 PPM Start=-3.1207465171441986 PPM End=12.528391440425866
 Name=gaba Abbr=GABA Scale=1.0 Shift=0.0 PPM Start=-3.1207465171441986 PPM End=12.528391440425866
 Name=glucose-beta Abbr=Glc Scale=1.0 Shift=0.0 PPM Start=-3.1207465171441986 PPM End=12.528391440425866
 Name=glutamate Abbr=Glu Scale=1.0 Shift=0.0 PPM Start=-3.1207465171441986 PPM End=12.528391440425866
 Name=glutamine Abbr=Gln Scale=1.0 Shift=0.0 PPM Start=-3.1207465171441986 PPM End=12.528391440425866
 Name=glycine Abbr=Gly Scale=1.0 Shift=0.0 PPM Start=-3.1207465171441986 PPM End=12.528391440425866
 Name=lactate Abbr=Lac Scale=1.0 Shift=0.0 PPM Start=-3.1207465171441986 PPM End=12.528391440425866
 Name=myo-inositol Abbr=mI Scale=1.0 Shift=0.0 PPM Start=-3.1207465171441986 PPM End=12.528391440425866
 Name=n-acetylaspartate Abbr=NAA Scale=1.0 Shift=0.0 PPM Start=-3.1207465171441986 PPM End=12.528391440425866
 Name=phosphocreatine Abbr=PCr Scale=1.0 Shift=0.0 PPM Start=-3.1207465171441986 PPM End=12.528391440425866
 Name=phosphorylcholine-trimethyl Abbr=PCho Scale=1.0 Shift=0.0 PPM Start=-3.1207465171441986 PPM End=12.528391440425866
 Name=phosphorylethanolamine Abbr=PE Scale=1.0 Shift=0.0 PPM Start=-3.1207465171441986 PPM End=12.528391440425866
 Name=pyruvate Abbr=Pyr Scale=1.0 Shift=0.0 PPM Start=-3.1207465171441986 PPM End=12.528391440425866
 Name=taurine Abbr=Tau Scale=1.0 Shift=0.0 PPM Start=-3.1207465171441986 PPM End=12.528391440425866
 Name=glutathione-glutamate+glutathione-glycine-cysteine Abbr=GSH Scale=1.0 Shift=0.0 PPM Start=-3.1207565171441987 PPM End=12.528
   Mixture of [metab*scale] = glutathione-glutamate*1.000000 + glutathione-glycine-cysteine*1.000000
 
 ===========================================================================
 This LCModel format RAW file was created using the 
 Vespa-Simulation spectral simulation program using 
 the following settings and parameters 
 
 Sweep Width = 2000.0 Hz 
 Vector Size = 2048 points 
 Apodization = 14.0 Hz Lorentzian broadening
 B0 Field    = 127.74 MHz 
 Ref Singlet = False
  
 $NMID ID='Gln'
 FMTDAT='(2E16.6)'
 VOLUME=1.0
 TRAMP=1.0
 $END
    6.648551E+00    1.452317E-02
    3.935577E+00    1.753303E+00
   -1.440496E+00    2.260605E+00
   -4.754895E+00    1.271545E+00
   -3.525094E+00   -3.442160E-01
    4.958215E-01   -1.193149E+00
    3.357629E+00   -4.926199E-01
    2.689643E+00    1.154322E+00
   -4.472025E-01    2.149322E+00
   -3.045763E+00    1.308279E+00
   -3.100369E+00   -9.277493E-01
   -1.100111E+00   -2.725486E+00
    9.784744E-01   -2.492280E+00
    1.711039E+00   -4.196748E-01
    1.204414E+00    1.615879E+00
    4.281209E-01    1.799968E+00
    3.102992E-02    1.085730E-01
   -5.151233E-02   -1.694513E+00
   -9.461710E-02   -1.797511E+00
   -7.668963E-02   -8.346892E-02
    1.863498E-01    1.836905E+00
    5.806971E-01    2.260364E+00
    6.390400E-01    9.954584E-01
    5.040835E-02   -6.282420E-01
   -8.743669E-01   -1.204838E+00
   -1.394082E+00   -5.725487E-01
   -1.041562E+00    2.780174E-01
   -9.353130E-02    4.153035E-01
    6.935954E-01   -1.068041E-01
    7.898500E-01   -5.299396E-01
    3.133649E-01   -3.899933E-01
   -1.958466E-01   -1.619714E-02
   -3.230500E-01   -8.822362E-03
   -7.228413E-02   -4.054449E-01
    2.862438E-01   -5.811995E-01
    5.190664E-01   -2.338515E-02
    5.411854E-01    9.409995E-01
    3.380184E-01    1.368950E+00
   -6.813443E-02    7.005988E-01
   -5.288920E-01   -5.555970E-01
   -7.521377E-01   -1.247861E+00
   -5.183267E-01   -7.216230E-01
    4.112516E-02    5.047984E-01
    4.636568E-01    1.237276E+00
    3.622868E-01    7.691179E-01
   -1.598005E-01   -4.615731E-01
   -5.609866E-01   -1.339484E+00
   -3.914392E-01   -1.140411E+00
    2.288251E-01   -1.371111E-01
    7.085819E-01    7.685525E-01
    5.874160E-01    9.149536E-01
    1.313508E-02    3.826248E-01
   -4.193885E-01   -2.460840E-01
   -3.003261E-01   -4.868283E-01
    1.702755E-01   -2.938316E-01
    4.191968E-01    7.024839E-02
    1.339198E-01    3.481055E-01
   -3.978581E-01    4.336484E-01
   -6.059440E-01    3.145192E-01
   -2.580793E-01    1.585903E-02
    2.916602E-01   -3.502069E-01
    4.856582E-01   -5.597373E-01
    1.523373E-01   -4.203673E-01
   -3.287730E-01    1.273116E-02
   -4.434640E-01    4.111173E-01
   -7.747860E-02    4.391526E-01
    3.919539E-01    7.833591E-02
    5.110547E-01   -3.338126E-01
    2.044556E-01   -4.183458E-01
   -1.960410E-01   -1.147483E-01
   -3.295889E-01    2.785726E-01
   -1.561000E-01    4.138479E-01
    7.225616E-02    2.229282E-01
    1.259499E-01   -6.369344E-02
    2.165781E-02   -1.901051E-01
   -6.513389E-02   -1.229302E-01
   -4.252450E-02   -2.268517E-02
    6.290823E-03   -1.685139E-02
   -3.045944E-02   -6.001201E-02
   -1.192845E-01   -3.084148E-02
   -1.112977E-01    7.979717E-02
    5.787293E-02    1.368611E-01
    2.510644E-01    3.056728E-02
    2.569228E-01   -1.620103E-01
    3.043921E-02   -2.328636E-01
   -2.308696E-01   -7.090908E-02
   -2.769314E-01    1.950511E-01
   -6.389274E-02    3.115939E-01
    1.977969E-01    1.604591E-01
    2.581167E-01   -1.162790E-01
    7.520228E-02   -2.611256E-01
   -1.601154E-01   -1.597273E-01
   -2.319752E-01    5.953274E-02
   -1.076441E-01    1.770043E-01
    6.324298E-02    1.073593E-01
    1.276121E-01   -3.991330E-02
    7.496563E-02   -1.067376E-01
    5.879260E-03   -5.737728E-02
   -8.047717E-03    1.229055E-02
    4.339065E-03    1.307133E-02
   -1.824576E-02   -2.997579E-02
   -6.735956E-02   -2.492963E-02
   -6.706315E-02    5.449465E-02
    2.070286E-02    1.214143E-01
    1.243406E-01    7.626227E-02
    1.259509E-01   -6.351147E-02
   -2.728539E-03   -1.634730E-01
   -1.503949E-01   -1.124532E-01
   -1.710716E-01    5.100375E-02
   -3.699101E-02    1.700146E-01
    1.271610E-01    1.290561E-01
    1.689009E-01   -2.877466E-02
    5.968325E-02   -1.501071E-01
   -8.485313E-02   -1.285818E-01
   -1.301377E-01   -2.922889E-03
   -5.450766E-02    9.880949E-02
    4.736252E-02    9.537453E-02
    7.759266E-02    2.022910E-02
    3.220388E-02   -3.760437E-02
   -1.707196E-02   -3.636334E-02
   -1.828443E-02   -1.050314E-02
    6.093555E-03   -7.743895E-03
    2.583734E-03   -2.358043E-02
   -3.526474E-02   -1.450105E-02
   -5.452153E-02    3.314922E-02
   -1.153260E-02    7.175343E-02
    6.410342E-02    4.416173E-02
    9.238838E-02   -4.084311E-02
    3.184856E-02   -1.035553E-01
   -6.684719E-02   -7.390896E-02
   -1.075162E-01    2.887380E-02
   -4.805384E-02    1.088777E-01
    5.473651E-02    8.955141E-02
    1.032989E-01   -8.309177E-03
    5.732306E-02   -8.942454E-02
   -3.149487E-02   -8.165501E-02
   -7.893000E-02   -4.218725E-03
   -5.266402E-02    6.129925E-02
    6.548976E-03    5.870498E-02
    3.924365E-02    7.527359E-03
    2.891826E-02   -3.112000E-02
    5.450911E-03   -2.547510E-02
   -1.755991E-03    2.303801E-04
    1.921913E-03    5.903211E-03
   -6.574633E-03   -1.242382E-02
   -2.792200E-02   -2.139857E-02
   -3.307843E-02    2.566351E-03
   -7.552957E-04    3.843882E-02
    4.727462E-02    4.211278E-02
    6.129094E-02   -1.745144E-04
    1.788846E-02   -5.019011E-02
   -4.780900E-02   -5.561738E-02
   -7.280072E-02   -6.788966E-03
   -3.075750E-02    5.082711E-02
    3.874602E-02    6.264662E-02
    6.921435E-02    1.982780E-02
    3.400534E-02   -3.469066E-02
   -2.907056E-02   -5.218591E-02
   -5.917527E-02   -2.488208E-02
   -3.372350E-02    1.375562E-02
    1.444362E-02    2.881997E-02
    3.717756E-02    1.685988E-02
    2.086020E-02   -5.151815E-04
   -6.725299E-03   -7.063217E-03
   -1.368254E-02   -7.360807E-03
    8.008629E-04   -1.229076E-02
    1.168232E-02   -1.830124E-02
    2.554875E-03   -1.003048E-02
   -1.402373E-02    1.623303E-02
   -1.367090E-02    3.970027E-02
    7.679553E-03    3.339881E-02
    2.633564E-02   -4.154445E-03
    1.769763E-02   -4.125484E-02
   -1.387423E-02   -4.218496E-02
