 Vespa-Simulation Mixed Metabolite Output
 This file was generated by Vespa-Simulation. You can learn about and download Vespa here:
https://github.com/vespa-mrs/vespa/tree/main/vespa

 
 Output Path/Filename = /home/stud/casperc/bhome/Project1(DeepFit)/DeepFit-data-generation/DeepFitData_TE_20_lw14_2048p
 Output Loop Values = (1,1,1)  ( Loop 1 = 10, Loop 2 = 10, Loop3 Inactive )
 Output Comment
 ---------------------------------------------------------------------------
 
 
 Experiment Information
 ---------------------------------------------------------------------------
 --- Experiment 18b0168e-f5f0-4bd4-8d52-da93aba06c60 ---
 Name: SyntheticDataSetDeepFitTE20
 Public: False
 Created: 2024-10-08T09:55:07
 Comment (abbr.): 
 PI: Casper Cappelen
 b0: 127.740000
 Peak Search PPM low/high: -15.000000 / 15.000000
 Blend tol. PPM/phase: 0.001500 / 50.000000
 Pulse seq.: 43be13ae-de9a-40a1-9a2d-c872d8bjs100 (PRESS Ideal)
 0 User static parameters: 
 22 Metabolites: 2-hydroxyglutarate, GPC-pcholine2, NAAG-truncated, alanine, choline-trimethyl, creatine, ethanolamine, gaba, glucose-beta, glutamate, glutamine, glutathione-glutamate, glutathione-glycine-cysteine, glycine, lactate, myo-inositol, n-acetylaspartate, phosphocreatine, phosphorylcholine-trimethyl, phosphorylethanolamine, pyruvate, taurine
 22 Simulations: (not shown)
 
 Metabolite Formatting Information
 ---------------------------------------------------------------------------
 Name=2-hydroxyglutarate Abbr=2HG Scale=1.0 Shift=0.0 PPM Start=-3.1207465171441986 PPM End=12.528391440425866
 Name=GPC-pcholine2 Abbr=GPC Scale=1.0 Shift=0.0 PPM Start=-3.1207465171441986 PPM End=12.528391440425866
 Name=NAAG-truncated Abbr=NAAG Scale=1.0 Shift=0.0 PPM Start=-3.1207465171441986 PPM End=12.528391440425866
 Name=alanine Abbr=Ala Scale=1.0 Shift=0.0 PPM Start=-3.1207465171441986 PPM End=12.528391440425866
 Name=choline-trimethyl Abbr=Cho Scale=1.0 Shift=0.0 PPM Start=-3.1207465171441986 PPM End=12.528391440425866
 Name=creatine Abbr=Cr Scale=1.0 Shift=0.0 PPM Start=-3.1207465171441986 PPM End=12.528391440425866
 Name=ethanolamine Abbr=ETA Scale=1.0 Shift=0.0 PPM Start=-3.1207465171441986 PPM End=12.528391440425866
 Name=gaba Abbr=GABA Scale=1.0 Shift=0.0 PPM Start=-3.1207465171441986 PPM End=12.528391440425866
 Name=glucose-beta Abbr=Glc Scale=1.0 Shift=0.0 PPM Start=-3.1207465171441986 PPM End=12.528391440425866
 Name=glutamate Abbr=Glu Scale=1.0 Shift=0.0 PPM Start=-3.1207465171441986 PPM End=12.528391440425866
 Name=glutamine Abbr=Gln Scale=1.0 Shift=0.0 PPM Start=-3.1207465171441986 PPM End=12.528391440425866
 Name=glycine Abbr=Gly Scale=1.0 Shift=0.0 PPM Start=-3.1207465171441986 PPM End=12.528391440425866
 Name=lactate Abbr=Lac Scale=1.0 Shift=0.0 PPM Start=-3.1207465171441986 PPM End=12.528391440425866
 Name=myo-inositol Abbr=mI Scale=1.0 Shift=0.0 PPM Start=-3.1207465171441986 PPM End=12.528391440425866
 Name=n-acetylaspartate Abbr=NAA Scale=1.0 Shift=0.0 PPM Start=-3.1207465171441986 PPM End=12.528391440425866
 Name=phosphocreatine Abbr=PCr Scale=1.0 Shift=0.0 PPM Start=-3.1207465171441986 PPM End=12.528391440425866
 Name=phosphorylcholine-trimethyl Abbr=PCho Scale=1.0 Shift=0.0 PPM Start=-3.1207465171441986 PPM End=12.528391440425866
 Name=phosphorylethanolamine Abbr=PE Scale=1.0 Shift=0.0 PPM Start=-3.1207465171441986 PPM End=12.528391440425866
 Name=pyruvate Abbr=Pyr Scale=1.0 Shift=0.0 PPM Start=-3.1207465171441986 PPM End=12.528391440425866
 Name=taurine Abbr=Tau Scale=1.0 Shift=0.0 PPM Start=-3.1207465171441986 PPM End=12.528391440425866
 Name=glutathione-glutamate+glutathione-glycine-cysteine Abbr=GSH Scale=1.0 Shift=0.0 PPM Start=-3.1207565171441987 PPM End=12.528
   Mixture of [metab*scale] = glutathione-glutamate*1.000000 + glutathione-glycine-cysteine*1.000000
 
 ===========================================================================
 This LCModel format RAW file was created using the 
 Vespa-Simulation spectral simulation program using 
 the following settings and parameters 
 
 Sweep Width = 2000.0 Hz 
 Vector Size = 2048 points 
 Apodization = 14.0 Hz Lorentzian broadening
 B0 Field    = 127.74 MHz 
 Ref Singlet = False
  
 This data has been FFTd to be in the FREQUENCY domain
 
 $NMID ID='Gln'
 FMTDAT='(2E16.6)'
 VOLUME=1.0
 TRAMP=1.0
 $END
    3.592888E+00    3.986711E+00
    3.595547E+00    4.026130E+00
    3.598272E+00    4.065887E+00
    3.601067E+00    4.105993E+00
    3.603937E+00    4.146457E+00
    3.606885E+00    4.187289E+00
    3.609916E+00    4.228498E+00
    3.613035E+00    4.270091E+00
    3.616243E+00    4.312075E+00
    3.619542E+00    4.354460E+00
    3.622934E+00    4.397256E+00
    3.626420E+00    4.440474E+00
    3.630003E+00    4.484126E+00
    3.633687E+00    4.528223E+00
    3.637475E+00    4.572780E+00
    3.641372E+00    4.617807E+00
    3.645383E+00    4.663318E+00
    3.649510E+00    4.709324E+00
    3.653759E+00    4.755838E+00
    3.658132E+00    4.802873E+00
    3.662634E+00    4.850445E+00
    3.667269E+00    4.898569E+00
    3.672040E+00    4.947261E+00
    3.676955E+00    4.996539E+00
    3.682020E+00    5.046421E+00
    3.687242E+00    5.096922E+00
    3.692630E+00    5.148061E+00
    3.698191E+00    5.199853E+00
    3.703931E+00    5.252316E+00
    3.709854E+00    5.305466E+00
    3.715967E+00    5.359327E+00
    3.722276E+00    5.413919E+00
    3.728788E+00    5.469268E+00
    3.735514E+00    5.525397E+00
    3.742463E+00    5.582332E+00
    3.749647E+00    5.640097E+00
    3.757078E+00    5.698717E+00
    3.764764E+00    5.758218E+00
    3.772719E+00    5.818629E+00
    3.780953E+00    5.879978E+00
    3.789478E+00    5.942296E+00
    3.798308E+00    6.005616E+00
    3.807457E+00    6.069972E+00
    3.816940E+00    6.135399E+00
    3.826776E+00    6.201935E+00
    3.836981E+00    6.269615E+00
    3.847573E+00    6.338480E+00
    3.858571E+00    6.408571E+00
    3.869992E+00    6.479930E+00
    3.881857E+00    6.552607E+00
    3.894188E+00    6.626651E+00
    3.907010E+00    6.702114E+00
    3.920349E+00    6.779051E+00
    3.934234E+00    6.857519E+00
    3.948693E+00    6.937578E+00
    3.963756E+00    7.019291E+00
    3.979454E+00    7.102726E+00
    3.995821E+00    7.187956E+00
    4.012894E+00    7.275061E+00
    4.030710E+00    7.364124E+00
    4.049311E+00    7.455238E+00
    4.068743E+00    7.548505E+00
    4.089058E+00    7.644038E+00
    4.110318E+00    7.741964E+00
    4.132603E+00    7.842420E+00
    4.156011E+00    7.945551E+00
    4.180669E+00    8.051506E+00
    4.206729E+00    8.160423E+00
    4.234367E+00    8.272417E+00
    4.263756E+00    8.387567E+00
    4.295041E+00    8.505932E+00
    4.328330E+00    8.627582E+00
    4.363711E+00    8.752631E+00
    4.401291E+00    8.881243E+00
    4.441224E+00    9.013593E+00
    4.483681E+00    9.149842E+00
    4.528818E+00    9.290144E+00
    4.576754E+00    9.434689E+00
    4.627609E+00    9.583755E+00
    4.681569E+00    9.737709E+00
    4.738929E+00    9.896968E+00
    4.800100E+00    1.006193E+01
    4.865561E+00    1.023292E+01
    4.935792E+00    1.041024E+01
    5.011243E+00    1.059417E+01
    5.092357E+00    1.078510E+01
    5.179644E+00    1.098351E+01
    5.273764E+00    1.118999E+01
    5.375579E+00    1.140516E+01
    5.486154E+00    1.162961E+01
    5.606702E+00    1.186378E+01
    5.738505E+00    1.210805E+01
    5.882878E+00    1.236275E+01
    6.041216E+00    1.262827E+01
    6.215083E+00    1.290508E+01
    6.406304E+00    1.319375E+01
    6.617042E+00    1.349482E+01
    6.849863E+00    1.380883E+01
    7.107793E+00    1.413621E+01
    7.394390E+00    1.447722E+01
    7.713819E+00    1.483186E+01
    8.070955E+00    1.519974E+01
    8.471481E+00    1.557992E+01
    8.922003E+00    1.597067E+01
    9.430145E+00    1.636912E+01
    1.000460E+01    1.677078E+01
    1.065508E+01    1.716896E+01
    1.139209E+01    1.755390E+01
    1.222634E+01    1.791172E+01
    1.316753E+01    1.822324E+01
    1.422228E+01    1.846288E+01
    1.539067E+01    1.859809E+01
    1.666134E+01    1.859073E+01
    1.800593E+01    1.840184E+01
    1.937546E+01    1.800195E+01
    2.070437E+01    1.738643E+01
    2.192877E+01    1.658923E+01
    2.301801E+01    1.567995E+01
    2.400154E+01    1.473086E+01
    2.496062E+01    1.376335E+01
    2.597275E+01    1.271287E+01
    2.703858E+01    1.145022E+01
    2.804386E+01    9.858737E+00
    2.879276E+01    7.924206E+00
    2.910585E+01    5.776255E+00
    2.892480E+01    3.639640E+00
    2.834567E+01    1.718390E+00
    2.755282E+01    9.604631E-02
    2.670660E+01   -1.278358E+00
    2.586598E+01   -2.521612E+00
    2.498851E+01   -3.723511E+00
    2.399219E+01   -4.892508E+00
    2.282641E+01   -5.965953E+00
    2.150385E+01   -6.861367E+00
    2.008605E+01   -7.522969E+00
    1.864962E+01   -7.937947E+00
    1.725996E+01   -8.127895E+00
    1.596067E+01   -8.132132E+00
    1.477437E+01   -7.993944E+00
    1.370800E+01   -7.752712E+00
    1.275862E+01   -7.440803E+00
    1.191793E+01   -7.083215E+00
    1.117530E+01   -6.698489E+00
    1.051955E+01   -6.299976E+00
    9.939984E+00   -5.897068E+00
    9.426819E+00   -5.496223E+00
    8.971364E+00   -5.101768E+00
    8.566024E+00   -4.716504E+00
    8.204227E+00   -4.342149E+00
    7.880316E+00   -3.979656E+00
    7.589434E+00   -3.629448E+00
    7.327409E+00   -3.291581E+00
    7.090655E+00   -2.965857E+00
    6.876086E+00   -2.651906E+00
    6.681037E+00   -2.349245E+00
    6.503201E+00   -2.057313E+00
    6.340580E+00   -1.775495E+00
    6.191446E+00   -1.503134E+00
    6.054315E+00   -1.239546E+00
    5.927933E+00   -9.840183E-01
    5.811286E+00   -7.358375E-01
    5.703598E+00   -4.943231E-01
    5.604331E+00   -2.589000E-01
    5.513122E+00   -2.918427E-02
    5.429652E+00    1.949635E-01
    5.353490E+00    4.134829E-01
    5.283988E+00    6.262704E-01
    5.220316E+00    8.333734E-01
    5.161632E+00    1.035100E+00
    5.107269E+00    1.231981E+00
    5.056847E+00    1.424613E+00
    5.010239E+00    1.613468E+00
