 Vespa-Simulation Mixed Metabolite Output
 This file was generated by Vespa-Simulation. You can learn about and download Vespa here:
https://github.com/vespa-mrs/vespa/tree/main/vespa

 
 Output Path/Filename = /home/stud/casperc/bhome/Project1(DeepFit)/DeepFit-data-generation/DeepFitData_TE_20_lw14_2048p
 Output Loop Values = (1,1,1)  ( Loop 1 = 10, Loop 2 = 10, Loop3 Inactive )
 Output Comment
 ---------------------------------------------------------------------------
 
 
 Experiment Information
 ---------------------------------------------------------------------------
 --- Experiment 18b0168e-f5f0-4bd4-8d52-da93aba06c60 ---
 Name: SyntheticDataSetDeepFitTE20
 Public: False
 Created: 2024-10-08T09:55:07
 Comment (abbr.): 
 PI: Casper Cappelen
 b0: 127.740000
 Peak Search PPM low/high: -15.000000 / 15.000000
 Blend tol. PPM/phase: 0.001500 / 50.000000
 Pulse seq.: 43be13ae-de9a-40a1-9a2d-c872d8bjs100 (PRESS Ideal)
 0 User static parameters: 
 22 Metabolites: 2-hydroxyglutarate, GPC-pcholine2, NAAG-truncated, alanine, choline-trimethyl, creatine, ethanolamine, gaba, glucose-beta, glutamate, glutamine, glutathione-glutamate, glutathione-glycine-cysteine, glycine, lactate, myo-inositol, n-acetylaspartate, phosphocreatine, phosphorylcholine-trimethyl, phosphorylethanolamine, pyruvate, taurine
 22 Simulations: (not shown)
 
 Metabolite Formatting Information
 ---------------------------------------------------------------------------
 Name=2-hydroxyglutarate Abbr=2HG Scale=1.0 Shift=0.0 PPM Start=-3.1207465171441986 PPM End=12.528391440425866
 Name=GPC-pcholine2 Abbr=GPC Scale=1.0 Shift=0.0 PPM Start=-3.1207465171441986 PPM End=12.528391440425866
 Name=NAAG-truncated Abbr=NAAG Scale=1.0 Shift=0.0 PPM Start=-3.1207465171441986 PPM End=12.528391440425866
 Name=alanine Abbr=Ala Scale=1.0 Shift=0.0 PPM Start=-3.1207465171441986 PPM End=12.528391440425866
 Name=choline-trimethyl Abbr=Cho Scale=1.0 Shift=0.0 PPM Start=-3.1207465171441986 PPM End=12.528391440425866
 Name=creatine Abbr=Cr Scale=1.0 Shift=0.0 PPM Start=-3.1207465171441986 PPM End=12.528391440425866
 Name=ethanolamine Abbr=ETA Scale=1.0 Shift=0.0 PPM Start=-3.1207465171441986 PPM End=12.528391440425866
 Name=gaba Abbr=GABA Scale=1.0 Shift=0.0 PPM Start=-3.1207465171441986 PPM End=12.528391440425866
 Name=glucose-beta Abbr=Glc Scale=1.0 Shift=0.0 PPM Start=-3.1207465171441986 PPM End=12.528391440425866
 Name=glutamate Abbr=Glu Scale=1.0 Shift=0.0 PPM Start=-3.1207465171441986 PPM End=12.528391440425866
 Name=glutamine Abbr=Gln Scale=1.0 Shift=0.0 PPM Start=-3.1207465171441986 PPM End=12.528391440425866
 Name=glycine Abbr=Gly Scale=1.0 Shift=0.0 PPM Start=-3.1207465171441986 PPM End=12.528391440425866
 Name=lactate Abbr=Lac Scale=1.0 Shift=0.0 PPM Start=-3.1207465171441986 PPM End=12.528391440425866
 Name=myo-inositol Abbr=mI Scale=1.0 Shift=0.0 PPM Start=-3.1207465171441986 PPM End=12.528391440425866
 Name=n-acetylaspartate Abbr=NAA Scale=1.0 Shift=0.0 PPM Start=-3.1207465171441986 PPM End=12.528391440425866
 Name=phosphocreatine Abbr=PCr Scale=1.0 Shift=0.0 PPM Start=-3.1207465171441986 PPM End=12.528391440425866
 Name=phosphorylcholine-trimethyl Abbr=PCho Scale=1.0 Shift=0.0 PPM Start=-3.1207465171441986 PPM End=12.528391440425866
 Name=phosphorylethanolamine Abbr=PE Scale=1.0 Shift=0.0 PPM Start=-3.1207465171441986 PPM End=12.528391440425866
 Name=pyruvate Abbr=Pyr Scale=1.0 Shift=0.0 PPM Start=-3.1207465171441986 PPM End=12.528391440425866
 Name=taurine Abbr=Tau Scale=1.0 Shift=0.0 PPM Start=-3.1207465171441986 PPM End=12.528391440425866
 Name=glutathione-glutamate+glutathione-glycine-cysteine Abbr=GSH Scale=1.0 Shift=0.0 PPM Start=-3.1207565171441987 PPM End=12.528
   Mixture of [metab*scale] = glutathione-glutamate*1.000000 + glutathione-glycine-cysteine*1.000000
 
 ===========================================================================
 This LCModel format RAW file was created using the 
 Vespa-Simulation spectral simulation program using 
 the following settings and parameters 
 
 Sweep Width = 2000.0 Hz 
 Vector Size = 2048 points 
 Apodization = 14.0 Hz Lorentzian broadening
 B0 Field    = 127.74 MHz 
 Ref Singlet = False
  
 $NMID ID='Glu'
 FMTDAT='(2E16.6)'
 VOLUME=1.0
 TRAMP=1.0
 $END
    4.711103E+00    1.482782E-02
    2.823962E+00    3.481204E+00
   -9.098439E-01    3.921482E+00
   -3.194682E+00    1.280578E+00
   -2.269048E+00   -1.788364E+00
    6.169174E-01   -2.488613E+00
    2.548335E+00   -4.120739E-01
    1.709941E+00    2.267581E+00
   -1.044953E+00    2.956022E+00
   -3.157668E+00    1.018244E+00
   -2.788787E+00   -1.794537E+00
   -3.945744E-01   -3.092061E+00
    1.883793E+00   -2.001245E+00
    2.259220E+00    2.359317E-01
    8.005116E-01    1.590949E+00
   -8.741015E-01    1.106644E+00
   -1.220844E+00   -4.234922E-01
   -1.075720E-01   -1.402110E+00
    1.275294E+00   -9.446462E-01
    1.647411E+00    4.503072E-01
    7.608337E-01    1.537248E+00
   -5.507636E-01    1.502810E+00
   -1.257132E+00    5.707297E-01
   -1.015944E+00   -3.859862E-01
   -2.961357E-01   -6.976404E-01
    2.040930E-01   -3.861155E-01
    1.847188E-01    4.490163E-02
   -1.313315E-01    1.643151E-01
   -3.473819E-01   -5.610931E-02
   -2.758701E-01   -3.547331E-01
   -1.091777E-02   -4.956651E-01
    2.631213E-01   -4.361673E-01
    4.474238E-01   -2.527897E-01
    5.250794E-01   -7.219449E-03
    4.710342E-01    2.671589E-01
    2.490619E-01    4.878969E-01
   -8.911167E-02    5.190675E-01
   -3.590096E-01    2.995176E-01
   -3.688337E-01   -3.625024E-02
   -1.191893E-01   -2.228111E-01
    1.476785E-01   -1.005253E-01
    1.476027E-01    2.030427E-01
   -1.638014E-01    3.582933E-01
   -5.125943E-01    1.395591E-01
   -5.397189E-01   -3.344846E-01
   -1.444661E-01   -6.764183E-01
    3.929506E-01   -5.748515E-01
    6.450420E-01   -9.107265E-02
    4.212626E-01    3.802053E-01
   -5.590151E-02    4.609803E-01
   -3.526907E-01    1.293432E-01
   -2.188882E-01   -2.678057E-01
    1.899754E-01   -3.392518E-01
    4.654252E-01   -8.154755E-03
    3.261880E-01    4.246816E-01
   -1.276012E-01    5.630356E-01
   -5.133428E-01    2.753926E-01
   -5.152644E-01   -1.958457E-01
   -1.589796E-01   -4.633040E-01
    2.305787E-01   -3.397327E-01
    3.318832E-01    1.449938E-02
    1.050173E-01    2.593654E-01
   -1.988100E-01    1.874658E-01
   -2.839847E-01   -1.059253E-01
   -7.513801E-02   -3.332035E-01
    2.344914E-01   -2.841289E-01
    3.742918E-01   -4.012415E-03
    2.375179E-01    2.669664E-01
   -4.230274E-02    3.173815E-01
   -2.294203E-01    1.405844E-01
   -1.960576E-01   -8.380037E-02
   -1.563313E-02   -1.647738E-01
    1.268406E-01   -6.254351E-02
    1.076489E-01    9.899478E-02
   -3.826989E-02    1.610058E-01
   -1.685445E-01    7.083676E-02
   -1.692009E-01   -8.660895E-02
   -4.764585E-02   -1.785973E-01
    8.980813E-02   -1.418607E-01
    1.397545E-01   -2.456398E-02
    8.521784E-02    7.064888E-02
   -5.821577E-03    7.903997E-02
   -5.131338E-02    1.888770E-02
   -2.461930E-02   -3.964339E-02
    3.451786E-02   -4.238537E-02
    6.563307E-02    7.004146E-03
    4.154557E-02    6.065414E-02
   -1.511064E-02    7.368871E-02
   -5.892304E-02    3.999595E-02
   -6.169703E-02   -1.001786E-02
   -3.079749E-02   -4.003961E-02
    4.079593E-03   -3.657414E-02
    1.837967E-02   -1.370061E-02
    9.824018E-03    4.368321E-03
   -5.565127E-03    4.288074E-03
   -1.050425E-02   -8.804632E-03
   -4.190666E-04   -1.970180E-02
    1.556256E-02   -1.739556E-02
    2.438865E-02   -3.060425E-03
    1.990033E-02    1.288980E-02
    6.373636E-03    2.016835E-02
   -6.389553E-03    1.616507E-02
   -1.117803E-02    6.419670E-03
   -8.075478E-03   -1.051207E-03
   -2.800881E-03   -2.246249E-03
   -9.948060E-04    6.117509E-04
   -3.555371E-03    2.246497E-03
   -6.672603E-03   -4.313562E-04
   -5.977702E-03   -5.660793E-03
   -8.115666E-04   -8.803547E-03
    5.194947E-03   -6.847313E-03
    7.539180E-03   -1.213588E-03
    4.957890E-03    3.624935E-03
    4.101711E-04    4.289439E-03
   -1.876845E-03    1.461740E-03
   -4.128960E-04   -1.066486E-03
    2.308983E-03   -2.569668E-04
    2.461704E-03    3.147526E-03
   -1.166782E-03    5.345451E-03
   -5.758263E-03    3.258567E-03
   -7.000877E-03   -2.262967E-03
   -3.211635E-03   -6.937588E-03
    2.877371E-03   -6.875807E-03
    6.434852E-03   -2.184823E-03
    4.862934E-03    3.051326E-03
    1.300959E-04    4.461158E-03
   -3.087532E-03    1.353446E-03
   -1.761458E-03   -2.713486E-03
    2.667073E-03   -3.307080E-03
    5.625257E-03    6.774417E-04
    3.687193E-03    5.887738E-03
   -2.155932E-03    7.521514E-03
   -7.259774E-03    3.726162E-03
   -7.448330E-03   -2.647289E-03
   -2.735635E-03   -6.542569E-03
    2.729343E-03   -5.169868E-03
    4.413874E-03   -3.950438E-04
    1.421392E-03    3.077805E-03
   -2.841638E-03    2.024893E-03
   -3.886510E-03   -2.411511E-03
   -2.829582E-04   -5.836718E-03
    5.022230E-03   -4.650893E-03
    7.352369E-03    6.485307E-04
    4.497106E-03    5.856572E-03
   -1.296574E-03    6.758501E-03
   -5.286290E-03    2.828360E-03
   -4.381250E-03   -2.334580E-03
    1.779844E-04   -4.190795E-03
    3.954647E-03   -1.258483E-03
    3.263641E-03    3.581047E-03
   -1.518686E-03    5.625276E-03
   -6.196382E-03    2.548006E-03
   -6.400653E-03   -3.412831E-03
   -1.512587E-03   -7.255209E-03
    4.588461E-03   -5.551561E-03
    6.748834E-03    4.114164E-04
    3.063990E-03    5.532910E-03
   -3.252992E-03    5.250532E-03
   -6.476842E-03   -3.416426E-04
   -3.388195E-03   -6.312450E-03
    3.656764E-03   -7.066482E-03
    8.503251E-03   -1.387036E-03
    6.546390E-03    6.156314E-03
   -9.667953E-04    8.974783E-03
   -7.678742E-03    4.326589E-03
   -7.580531E-03   -3.933037E-03
   -5.158529E-04   -8.450475E-03
    7.315258E-03   -4.875188E-03
    8.634766E-03    3.979366E-03
    1.677422E-03    1.027345E-02
   -7.874306E-03    8.000415E-03
   -1.164440E-02   -1.448971E-03
   -6.012480E-03   -1.017270E-02
    4.409984E-03   -1.059898E-02
