 Vespa-Simulation Mixed Metabolite Output
 This file was generated by Vespa-Simulation. You can learn about and download Vespa here:
https://github.com/vespa-mrs/vespa/tree/main/vespa

 
 Output Path/Filename = /home/stud/casperc/bhome/Project1(DeepFit)/DeepFit-data-generation/DeepFitData_TE_20_lw14_2048p
 Output Loop Values = (1,1,1)  ( Loop 1 = 10, Loop 2 = 10, Loop3 Inactive )
 Output Comment
 ---------------------------------------------------------------------------
 
 
 Experiment Information
 ---------------------------------------------------------------------------
 --- Experiment 18b0168e-f5f0-4bd4-8d52-da93aba06c60 ---
 Name: SyntheticDataSetDeepFitTE20
 Public: False
 Created: 2024-10-08T09:55:07
 Comment (abbr.): 
 PI: Casper Cappelen
 b0: 127.740000
 Peak Search PPM low/high: -15.000000 / 15.000000
 Blend tol. PPM/phase: 0.001500 / 50.000000
 Pulse seq.: 43be13ae-de9a-40a1-9a2d-c872d8bjs100 (PRESS Ideal)
 0 User static parameters: 
 22 Metabolites: 2-hydroxyglutarate, GPC-pcholine2, NAAG-truncated, alanine, choline-trimethyl, creatine, ethanolamine, gaba, glucose-beta, glutamate, glutamine, glutathione-glutamate, glutathione-glycine-cysteine, glycine, lactate, myo-inositol, n-acetylaspartate, phosphocreatine, phosphorylcholine-trimethyl, phosphorylethanolamine, pyruvate, taurine
 22 Simulations: (not shown)
 
 Metabolite Formatting Information
 ---------------------------------------------------------------------------
 Name=2-hydroxyglutarate Abbr=2HG Scale=1.0 Shift=0.0 PPM Start=-3.1207465171441986 PPM End=12.528391440425866
 Name=GPC-pcholine2 Abbr=GPC Scale=1.0 Shift=0.0 PPM Start=-3.1207465171441986 PPM End=12.528391440425866
 Name=NAAG-truncated Abbr=NAAG Scale=1.0 Shift=0.0 PPM Start=-3.1207465171441986 PPM End=12.528391440425866
 Name=alanine Abbr=Ala Scale=1.0 Shift=0.0 PPM Start=-3.1207465171441986 PPM End=12.528391440425866
 Name=choline-trimethyl Abbr=Cho Scale=1.0 Shift=0.0 PPM Start=-3.1207465171441986 PPM End=12.528391440425866
 Name=creatine Abbr=Cr Scale=1.0 Shift=0.0 PPM Start=-3.1207465171441986 PPM End=12.528391440425866
 Name=ethanolamine Abbr=ETA Scale=1.0 Shift=0.0 PPM Start=-3.1207465171441986 PPM End=12.528391440425866
 Name=gaba Abbr=GABA Scale=1.0 Shift=0.0 PPM Start=-3.1207465171441986 PPM End=12.528391440425866
 Name=glucose-beta Abbr=Glc Scale=1.0 Shift=0.0 PPM Start=-3.1207465171441986 PPM End=12.528391440425866
 Name=glutamate Abbr=Glu Scale=1.0 Shift=0.0 PPM Start=-3.1207465171441986 PPM End=12.528391440425866
 Name=glutamine Abbr=Gln Scale=1.0 Shift=0.0 PPM Start=-3.1207465171441986 PPM End=12.528391440425866
 Name=glycine Abbr=Gly Scale=1.0 Shift=0.0 PPM Start=-3.1207465171441986 PPM End=12.528391440425866
 Name=lactate Abbr=Lac Scale=1.0 Shift=0.0 PPM Start=-3.1207465171441986 PPM End=12.528391440425866
 Name=myo-inositol Abbr=mI Scale=1.0 Shift=0.0 PPM Start=-3.1207465171441986 PPM End=12.528391440425866
 Name=n-acetylaspartate Abbr=NAA Scale=1.0 Shift=0.0 PPM Start=-3.1207465171441986 PPM End=12.528391440425866
 Name=phosphocreatine Abbr=PCr Scale=1.0 Shift=0.0 PPM Start=-3.1207465171441986 PPM End=12.528391440425866
 Name=phosphorylcholine-trimethyl Abbr=PCho Scale=1.0 Shift=0.0 PPM Start=-3.1207465171441986 PPM End=12.528391440425866
 Name=phosphorylethanolamine Abbr=PE Scale=1.0 Shift=0.0 PPM Start=-3.1207465171441986 PPM End=12.528391440425866
 Name=pyruvate Abbr=Pyr Scale=1.0 Shift=0.0 PPM Start=-3.1207465171441986 PPM End=12.528391440425866
 Name=taurine Abbr=Tau Scale=1.0 Shift=0.0 PPM Start=-3.1207465171441986 PPM End=12.528391440425866
 Name=glutathione-glutamate+glutathione-glycine-cysteine Abbr=GSH Scale=1.0 Shift=0.0 PPM Start=-3.1207565171441987 PPM End=12.528
   Mixture of [metab*scale] = glutathione-glutamate*1.000000 + glutathione-glycine-cysteine*1.000000
 
 ===========================================================================
 This LCModel format RAW file was created using the 
 Vespa-Simulation spectral simulation program using 
 the following settings and parameters 
 
 Sweep Width = 2000.0 Hz 
 Vector Size = 2048 points 
 Apodization = 14.0 Hz Lorentzian broadening
 B0 Field    = 127.74 MHz 
 Ref Singlet = False
  
 This data has been FFTd to be in the FREQUENCY domain
 
 $NMID ID='Glu'
 FMTDAT='(2E16.6)'
 VOLUME=1.0
 TRAMP=1.0
 $END
    2.572128E+00    5.798583E+00
    2.575016E+00    5.830116E+00
    2.577970E+00    5.862017E+00
    2.580993E+00    5.894295E+00
    2.584087E+00    5.926955E+00
    2.587254E+00    5.960008E+00
    2.590495E+00    5.993460E+00
    2.593814E+00    6.027322E+00
    2.597212E+00    6.061604E+00
    2.600693E+00    6.096314E+00
    2.604262E+00    6.131461E+00
    2.607919E+00    6.167056E+00
    2.611669E+00    6.203107E+00
    2.615514E+00    6.239625E+00
    2.619456E+00    6.276622E+00
    2.623498E+00    6.314108E+00
    2.627643E+00    6.352099E+00
    2.631897E+00    6.390605E+00
    2.636265E+00    6.429641E+00
    2.640753E+00    6.469218E+00
    2.645364E+00    6.509346E+00
    2.650102E+00    6.550041E+00
    2.654970E+00    6.591314E+00
    2.659971E+00    6.633184E+00
    2.665110E+00    6.675667E+00
    2.670395E+00    6.718782E+00
    2.675833E+00    6.762545E+00
    2.681432E+00    6.806973E+00
    2.687199E+00    6.852082E+00
    2.693141E+00    6.897890E+00
    2.699263E+00    6.944414E+00
    2.705572E+00    6.991676E+00
    2.712075E+00    7.039696E+00
    2.718779E+00    7.088497E+00
    2.725695E+00    7.138102E+00
    2.732829E+00    7.188535E+00
    2.740193E+00    7.239823E+00
    2.747799E+00    7.291992E+00
    2.755658E+00    7.345068E+00
    2.763784E+00    7.399079E+00
    2.772190E+00    7.454050E+00
    2.780887E+00    7.510012E+00
    2.789888E+00    7.566993E+00
    2.799204E+00    7.625028E+00
    2.808850E+00    7.684154E+00
    2.818843E+00    7.744408E+00
    2.829202E+00    7.805829E+00
    2.839945E+00    7.868456E+00
    2.851094E+00    7.932331E+00
    2.862670E+00    7.997496E+00
    2.874694E+00    8.063995E+00
    2.887189E+00    8.131877E+00
    2.900181E+00    8.201191E+00
    2.913695E+00    8.271990E+00
    2.927760E+00    8.344332E+00
    2.942409E+00    8.418273E+00
    2.957674E+00    8.493876E+00
    2.973590E+00    8.571202E+00
    2.990194E+00    8.650321E+00
    3.007525E+00    8.731303E+00
    3.025625E+00    8.814226E+00
    3.044540E+00    8.899171E+00
    3.064321E+00    8.986224E+00
    3.085022E+00    9.075472E+00
    3.106699E+00    9.167012E+00
    3.129414E+00    9.260942E+00
    3.153230E+00    9.357371E+00
    3.178215E+00    9.456415E+00
    3.204444E+00    9.558199E+00
    3.231999E+00    9.662859E+00
    3.260967E+00    9.770542E+00
    3.291448E+00    9.881406E+00
    3.323547E+00    9.995627E+00
    3.357387E+00    1.011340E+01
    3.393108E+00    1.023493E+01
    3.430878E+00    1.036047E+01
    3.470904E+00    1.049025E+01
    3.513440E+00    1.062455E+01
    3.558782E+00    1.076359E+01
    3.607258E+00    1.090760E+01
    3.659192E+00    1.105676E+01
    3.714877E+00    1.121125E+01
    3.774593E+00    1.137131E+01
    3.838651E+00    1.153725E+01
    3.907447E+00    1.170945E+01
    3.981465E+00    1.188827E+01
    4.061258E+00    1.207407E+01
    4.147418E+00    1.226719E+01
    4.240570E+00    1.246798E+01
    4.341383E+00    1.267682E+01
    4.450563E+00    1.289415E+01
    4.568880E+00    1.312048E+01
    4.697224E+00    1.335645E+01
    4.836697E+00    1.360284E+01
    4.988698E+00    1.386049E+01
    5.154984E+00    1.413025E+01
    5.337671E+00    1.441284E+01
    5.539172E+00    1.470878E+01
    5.762120E+00    1.501844E+01
    6.009378E+00    1.534206E+01
    6.284137E+00    1.567989E+01
    6.590090E+00    1.603214E+01
    6.931636E+00    1.639891E+01
    7.314099E+00    1.678004E+01
    7.743956E+00    1.717479E+01
    8.229020E+00    1.758147E+01
    8.778499E+00    1.799675E+01
    9.402842E+00    1.841505E+01
    1.011341E+01    1.882775E+01
    1.092200E+01    1.922245E+01
    1.184002E+01    1.958191E+01
    1.287710E+01    1.988283E+01
    1.403842E+01    2.009478E+01
    1.532055E+01    2.018006E+01
    1.670581E+01    2.009617E+01
    1.815666E+01    1.980277E+01
    1.961426E+01    1.927460E+01
    2.100763E+01    1.851760E+01
    2.227801E+01    1.757750E+01
    2.341027E+01    1.652499E+01
    2.444542E+01    1.541297E+01
    2.545037E+01    1.423157E+01
    2.645499E+01    1.290268E+01
    2.740306E+01    1.133052E+01
    2.815969E+01    9.477722E+00
    2.857729E+01    7.412632E+00
    2.857834E+01    5.290996E+00
    2.819797E+01    3.280389E+00
    2.755580E+01    1.478105E+00
    2.677736E+01   -1.206430E-01
    2.592257E+01   -1.585097E+00
    2.497069E+01   -2.974925E+00
    2.386518E+01   -4.287467E+00
    2.257564E+01   -5.460896E+00
    2.112827E+01   -6.418500E+00
    1.959324E+01   -7.111660E+00
    1.805227E+01   -7.534959E+00
    1.657303E+01   -7.716978E+00
    1.519928E+01   -7.702954E+00
    1.395246E+01   -7.540658E+00
    1.283784E+01   -7.272604E+00
    1.185079E+01   -6.933291E+00
    1.098148E+01   -6.549247E+00
    1.021783E+01   -6.140185E+00
    9.547227E+00   -5.720368E+00
    8.957450E+00   -5.299763E+00
    8.437205E+00   -4.884978E+00
    7.976469E+00   -4.480057E+00
    7.566658E+00   -4.087210E+00
    7.200594E+00   -3.707443E+00
    6.872335E+00   -3.341042E+00
    6.576952E+00   -2.987867E+00
    6.310338E+00   -2.647526E+00
    6.069061E+00   -2.319470E+00
    5.850268E+00   -2.003067E+00
    5.651619E+00   -1.697673E+00
    5.471203E+00   -1.402722E+00
    5.307424E+00   -1.117805E+00
    5.158844E+00   -8.427004E-01
    5.024029E+00   -5.773023E-01
    4.901478E+00   -3.214699E-01
    4.789694E+00   -7.489004E-02
    4.687321E+00    1.629515E-01
    4.593239E+00    3.926859E-01
    4.506565E+00    6.149512E-01
    4.426603E+00    8.303305E-01
    4.352791E+00    1.039331E+00
    4.284666E+00    1.242365E+00
    4.221807E+00    1.439742E+00
    4.163769E+00    1.631703E+00
    4.110069E+00    1.818488E+00
    4.060219E+00    2.000389E+00
