 Vespa-Simulation Mixed Metabolite Output
 This file was generated by Vespa-Simulation. You can learn about and download Vespa here:
https://github.com/vespa-mrs/vespa/tree/main/vespa

 
 Output Path/Filename = /home/stud/casperc/bhome/Project1(DeepFit)/DeepFit-data-generation/DeepFitData_TE_20_lw14_2048p
 Output Loop Values = (1,1,1)  ( Loop 1 = 10, Loop 2 = 10, Loop3 Inactive )
 Output Comment
 ---------------------------------------------------------------------------
 
 
 Experiment Information
 ---------------------------------------------------------------------------
 --- Experiment 18b0168e-f5f0-4bd4-8d52-da93aba06c60 ---
 Name: SyntheticDataSetDeepFitTE20
 Public: False
 Created: 2024-10-08T09:55:07
 Comment (abbr.): 
 PI: Casper Cappelen
 b0: 127.740000
 Peak Search PPM low/high: -15.000000 / 15.000000
 Blend tol. PPM/phase: 0.001500 / 50.000000
 Pulse seq.: 43be13ae-de9a-40a1-9a2d-c872d8bjs100 (PRESS Ideal)
 0 User static parameters: 
 22 Metabolites: 2-hydroxyglutarate, GPC-pcholine2, NAAG-truncated, alanine, choline-trimethyl, creatine, ethanolamine, gaba, glucose-beta, glutamate, glutamine, glutathione-glutamate, glutathione-glycine-cysteine, glycine, lactate, myo-inositol, n-acetylaspartate, phosphocreatine, phosphorylcholine-trimethyl, phosphorylethanolamine, pyruvate, taurine
 22 Simulations: (not shown)
 
 Metabolite Formatting Information
 ---------------------------------------------------------------------------
 Name=2-hydroxyglutarate Abbr=2HG Scale=1.0 Shift=0.0 PPM Start=-3.1207465171441986 PPM End=12.528391440425866
 Name=GPC-pcholine2 Abbr=GPC Scale=1.0 Shift=0.0 PPM Start=-3.1207465171441986 PPM End=12.528391440425866
 Name=NAAG-truncated Abbr=NAAG Scale=1.0 Shift=0.0 PPM Start=-3.1207465171441986 PPM End=12.528391440425866
 Name=alanine Abbr=Ala Scale=1.0 Shift=0.0 PPM Start=-3.1207465171441986 PPM End=12.528391440425866
 Name=choline-trimethyl Abbr=Cho Scale=1.0 Shift=0.0 PPM Start=-3.1207465171441986 PPM End=12.528391440425866
 Name=creatine Abbr=Cr Scale=1.0 Shift=0.0 PPM Start=-3.1207465171441986 PPM End=12.528391440425866
 Name=ethanolamine Abbr=ETA Scale=1.0 Shift=0.0 PPM Start=-3.1207465171441986 PPM End=12.528391440425866
 Name=gaba Abbr=GABA Scale=1.0 Shift=0.0 PPM Start=-3.1207465171441986 PPM End=12.528391440425866
 Name=glucose-beta Abbr=Glc Scale=1.0 Shift=0.0 PPM Start=-3.1207465171441986 PPM End=12.528391440425866
 Name=glutamate Abbr=Glu Scale=1.0 Shift=0.0 PPM Start=-3.1207465171441986 PPM End=12.528391440425866
 Name=glutamine Abbr=Gln Scale=1.0 Shift=0.0 PPM Start=-3.1207465171441986 PPM End=12.528391440425866
 Name=glycine Abbr=Gly Scale=1.0 Shift=0.0 PPM Start=-3.1207465171441986 PPM End=12.528391440425866
 Name=lactate Abbr=Lac Scale=1.0 Shift=0.0 PPM Start=-3.1207465171441986 PPM End=12.528391440425866
 Name=myo-inositol Abbr=mI Scale=1.0 Shift=0.0 PPM Start=-3.1207465171441986 PPM End=12.528391440425866
 Name=n-acetylaspartate Abbr=NAA Scale=1.0 Shift=0.0 PPM Start=-3.1207465171441986 PPM End=12.528391440425866
 Name=phosphocreatine Abbr=PCr Scale=1.0 Shift=0.0 PPM Start=-3.1207465171441986 PPM End=12.528391440425866
 Name=phosphorylcholine-trimethyl Abbr=PCho Scale=1.0 Shift=0.0 PPM Start=-3.1207465171441986 PPM End=12.528391440425866
 Name=phosphorylethanolamine Abbr=PE Scale=1.0 Shift=0.0 PPM Start=-3.1207465171441986 PPM End=12.528391440425866
 Name=pyruvate Abbr=Pyr Scale=1.0 Shift=0.0 PPM Start=-3.1207465171441986 PPM End=12.528391440425866
 Name=taurine Abbr=Tau Scale=1.0 Shift=0.0 PPM Start=-3.1207465171441986 PPM End=12.528391440425866
 Name=glutathione-glutamate+glutathione-glycine-cysteine Abbr=GSH Scale=1.0 Shift=0.0 PPM Start=-3.1207565171441987 PPM End=12.528
   Mixture of [metab*scale] = glutathione-glutamate*1.000000 + glutathione-glycine-cysteine*1.000000
 
 ===========================================================================
 This LCModel format RAW file was created using the 
 Vespa-Simulation spectral simulation program using 
 the following settings and parameters 
 
 Sweep Width = 2000.0 Hz 
 Vector Size = 2048 points 
 Apodization = 14.0 Hz Lorentzian broadening
 B0 Field    = 127.74 MHz 
 Ref Singlet = False
  
 $NMID ID='Gly'
 FMTDAT='(2E16.6)'
 VOLUME=1.0
 TRAMP=1.0
 $END
    2.000000E+00   -2.775558E-17
    1.751117E+00    8.726237E-01
    1.152470E+00    1.528066E+00
    3.423421E-01    1.840748E+00
   -5.034002E-01    1.761050E+00
   -1.209122E+00    1.322265E+00
   -1.635577E+00    6.301655E-01
   -1.706992E+00   -1.618756E-01
   -1.423943E+00   -8.865130E-01
   -8.599535E-01   -1.397475E+00
   -1.432043E-01   -1.598779E+00
    5.721831E-01   -1.462306E+00
    1.139002E+00   -1.030684E+00
    1.446963E+00   -4.054637E-01
    1.443809E+00    2.763203E-01
    1.143580E+00    8.718822E-01
    6.208542E-01    1.262344E+00
   -7.181980E-03    1.376142E+00
   -6.067079E-01    1.201763E+00
   -1.055552E+00    7.875000E-01
   -1.267793E+00    2.289520E-01
   -1.209922E+00   -3.526929E-01
   -9.054730E-01   -8.367069E-01
   -4.277290E-01   -1.127655E+00
    1.175077E-01   -1.173951E+00
    6.150940E-01   -9.765926E-01
    9.646500E-01   -5.866908E-01
    1.100588E+00   -9.279351E-02
    1.004116E+00    3.989538E-01
    7.050990E-01    7.874106E-01
    2.737985E-01    9.970673E-01
   -1.953061E-01    9.924524E-01
   -6.040262E-01    7.837315E-01
   -8.708090E-01    4.226646E-01
   -9.468578E-01   -9.883426E-03
   -8.247199E-01   -4.217736E-01
   -5.380704E-01   -7.291193E-01
   -1.529826E-01   -8.731542E-01
    2.470170E-01   -8.312473E-01
    5.789653E-01   -6.200251E-01
    7.774407E-01   -2.902638E-01
    8.073397E-01    8.506933E-02
    6.697592E-01    4.267309E-01
    4.002209E-01    6.658545E-01
    5.990141E-02    7.576155E-01
   -2.781143E-01    6.894704E-01
   -5.443264E-01    4.823306E-01
   -6.870351E-01    1.848170E-01
   -6.821764E-01   -1.379483E-01
   -5.370996E-01   -4.184201E-01
   -2.876962E-01   -6.006963E-01
    1.019191E-02   -6.514702E-01
    2.931718E-01   -5.659514E-01
    5.036181E-01   -3.676124E-01
    6.013415E-01   -1.021274E-01
    5.710702E-01    1.729503E-01
    4.245423E-01    4.005958E-01
    1.969303E-01    5.359767E-01
   -6.142544E-02    5.552025E-01
   -2.960263E-01    4.593095E-01
   -4.595889E-01    2.729956E-01
   -5.215084E-01    3.849584E-02
   -4.734086E-01   -1.938320E-01
   -3.299231E-01   -3.762674E-01
   -1.246937E-01   -4.733944E-01
    9.736166E-02   -4.688918E-01
    2.898315E-01   -3.680601E-01
    4.143548E-01   -1.957983E-01
    4.482210E-01    9.358198E-03
    3.883647E-01    2.037501E-01
    2.511350E-01    3.478451E-01
    6.811150E-02    4.141324E-01
   -1.210475E-01    3.923175E-01
   -2.771590E-01    2.906805E-01
   -3.694972E-01    1.335774E-01
   -3.817975E-01   -4.426391E-02
   -3.149773E-01   -2.053322E-01
   -1.861900E-01   -3.172101E-01
   -2.461514E-02   -3.589730E-01
    1.350745E-01   -3.250409E-01
    2.600804E-01   -2.256629E-01
    3.261756E-01   -8.410258E-02
    3.222803E-01    6.867985E-02
    2.522135E-01    2.007430E-01
    1.332391E-01    2.858069E-01
   -8.044524E-03    3.083744E-01
   -1.415927E-01    2.664889E-01
   -2.402417E-01    1.715528E-01
   -2.851965E-01    4.538224E-02
   -2.695065E-01   -8.470173E-02
   -1.990110E-01   -1.917516E-01
   -9.058730E-02   -2.547189E-01
    3.182423E-02   -2.625453E-01
    1.424172E-01   -2.159875E-01
    2.189300E-01   -1.269758E-01
    2.470872E-01   -1.565122E-02
    2.231674E-01    9.410510E-02
    1.543357E-01    1.797662E-01
    5.670027E-02    2.247333E-01
   -4.841095E-02    2.215058E-01
   -1.390335E-01    1.728181E-01
   -1.971351E-01    9.064897E-02
   -2.121547E-01   -6.639726E-03
   -1.828562E-01   -9.838039E-02
   -1.171756E-01   -1.659210E-01
   -3.020471E-02   -1.963981E-01
    5.924612E-02   -1.851362E-01
    1.326516E-01   -1.362469E-01
    1.755908E-01   -6.141344E-02
    1.805359E-01    2.283771E-02
    1.481047E-01    9.876674E-02
    8.658016E-02    1.510965E-01
    9.879578E-03    1.700699E-01
   -6.555033E-02    1.532180E-01
   -1.242447E-01    1.055501E-01
   -1.548366E-01    3.820472E-02
   -1.522383E-01   -3.410355E-02
   -1.184131E-01   -9.628392E-02
   -6.166686E-02   -1.359677E-01
    5.332408E-03   -1.459536E-01
    6.834766E-02   -1.254657E-01
    1.145851E-01   -8.003086E-02
    1.352446E-01   -2.007591E-02
    1.271736E-01    4.143207E-02
    9.327244E-02    9.176172E-02
    4.162790E-02    1.210389E-01
   -1.636393E-02    1.241393E-01
   -6.849175E-02    1.015510E-01
   -1.042769E-01    5.902931E-02
   -1.170554E-01    6.191848E-03
   -1.051901E-01   -4.565209E-02
   -7.218096E-02   -8.586729E-02
   -2.573298E-02   -1.066754E-01
    2.401376E-02   -1.046280E-01
    6.667648E-02   -8.112999E-02
    9.377743E-02   -4.194166E-02
    1.004072E-01    4.194541E-03
    8.608453E-02    4.747744E-02
    5.465652E-02    7.912937E-02
    1.332924E-02    9.312977E-02
   -2.896372E-02    8.735608E-02
   -6.347438E-02    6.384770E-02
   -8.343323E-02    2.820718E-02
   -8.535772E-02   -1.170648E-02
   -6.963025E-02   -4.748907E-02
   -4.024481E-02   -7.196025E-02
   -3.839005E-03   -8.056471E-02
    3.179059E-02   -7.221392E-02
    5.934265E-02   -4.935648E-02
    7.349290E-02   -1.732206E-02
    7.190503E-02    1.689985E-02
    5.558564E-02    4.616726E-02
    2.852469E-02    6.467501E-02
   -3.243923E-03    6.907241E-02
   -3.297778E-02    5.906135E-02
   -5.464340E-02    3.732268E-02
   -6.412788E-02    8.836174E-03
   -6.000291E-02   -2.024360E-02
   -4.370322E-02   -4.390474E-02
   -1.911126E-02   -5.750853E-02
    8.359046E-03   -5.869050E-02
    3.292653E-02   -4.773958E-02
    4.965864E-02   -2.743221E-02
    5.544806E-02   -2.351456E-03
    4.957385E-02    2.213417E-02
    3.374711E-02    4.100965E-02
    1.165694E-02    5.063009E-02
   -1.188453E-02    4.941558E-02
   -3.196647E-02    3.808065E-02
   -4.460369E-02    1.939417E-02
   -4.751504E-02   -2.480725E-03
   -4.051967E-02   -2.290368E-02
   -2.548392E-02   -3.773290E-02
   -5.851413E-03   -4.415605E-02
