 Vespa-Simulation Mixed Metabolite Output
 This file was generated by Vespa-Simulation. You can learn about and download Vespa here:
https://github.com/vespa-mrs/vespa/tree/main/vespa

 
 Output Path/Filename = /home/stud/casperc/bhome/Project1(DeepFit)/DeepFit-data-generation/DeepFitData_TE_20_lw14_2048p
 Output Loop Values = (1,1,1)  ( Loop 1 = 10, Loop 2 = 10, Loop3 Inactive )
 Output Comment
 ---------------------------------------------------------------------------
 
 
 Experiment Information
 ---------------------------------------------------------------------------
 --- Experiment 18b0168e-f5f0-4bd4-8d52-da93aba06c60 ---
 Name: SyntheticDataSetDeepFitTE20
 Public: False
 Created: 2024-10-08T09:55:07
 Comment (abbr.): 
 PI: Casper Cappelen
 b0: 127.740000
 Peak Search PPM low/high: -15.000000 / 15.000000
 Blend tol. PPM/phase: 0.001500 / 50.000000
 Pulse seq.: 43be13ae-de9a-40a1-9a2d-c872d8bjs100 (PRESS Ideal)
 0 User static parameters: 
 22 Metabolites: 2-hydroxyglutarate, GPC-pcholine2, NAAG-truncated, alanine, choline-trimethyl, creatine, ethanolamine, gaba, glucose-beta, glutamate, glutamine, glutathione-glutamate, glutathione-glycine-cysteine, glycine, lactate, myo-inositol, n-acetylaspartate, phosphocreatine, phosphorylcholine-trimethyl, phosphorylethanolamine, pyruvate, taurine
 22 Simulations: (not shown)
 
 Metabolite Formatting Information
 ---------------------------------------------------------------------------
 Name=2-hydroxyglutarate Abbr=2HG Scale=1.0 Shift=0.0 PPM Start=-3.1207465171441986 PPM End=12.528391440425866
 Name=GPC-pcholine2 Abbr=GPC Scale=1.0 Shift=0.0 PPM Start=-3.1207465171441986 PPM End=12.528391440425866
 Name=NAAG-truncated Abbr=NAAG Scale=1.0 Shift=0.0 PPM Start=-3.1207465171441986 PPM End=12.528391440425866
 Name=alanine Abbr=Ala Scale=1.0 Shift=0.0 PPM Start=-3.1207465171441986 PPM End=12.528391440425866
 Name=choline-trimethyl Abbr=Cho Scale=1.0 Shift=0.0 PPM Start=-3.1207465171441986 PPM End=12.528391440425866
 Name=creatine Abbr=Cr Scale=1.0 Shift=0.0 PPM Start=-3.1207465171441986 PPM End=12.528391440425866
 Name=ethanolamine Abbr=ETA Scale=1.0 Shift=0.0 PPM Start=-3.1207465171441986 PPM End=12.528391440425866
 Name=gaba Abbr=GABA Scale=1.0 Shift=0.0 PPM Start=-3.1207465171441986 PPM End=12.528391440425866
 Name=glucose-beta Abbr=Glc Scale=1.0 Shift=0.0 PPM Start=-3.1207465171441986 PPM End=12.528391440425866
 Name=glutamate Abbr=Glu Scale=1.0 Shift=0.0 PPM Start=-3.1207465171441986 PPM End=12.528391440425866
 Name=glutamine Abbr=Gln Scale=1.0 Shift=0.0 PPM Start=-3.1207465171441986 PPM End=12.528391440425866
 Name=glycine Abbr=Gly Scale=1.0 Shift=0.0 PPM Start=-3.1207465171441986 PPM End=12.528391440425866
 Name=lactate Abbr=Lac Scale=1.0 Shift=0.0 PPM Start=-3.1207465171441986 PPM End=12.528391440425866
 Name=myo-inositol Abbr=mI Scale=1.0 Shift=0.0 PPM Start=-3.1207465171441986 PPM End=12.528391440425866
 Name=n-acetylaspartate Abbr=NAA Scale=1.0 Shift=0.0 PPM Start=-3.1207465171441986 PPM End=12.528391440425866
 Name=phosphocreatine Abbr=PCr Scale=1.0 Shift=0.0 PPM Start=-3.1207465171441986 PPM End=12.528391440425866
 Name=phosphorylcholine-trimethyl Abbr=PCho Scale=1.0 Shift=0.0 PPM Start=-3.1207465171441986 PPM End=12.528391440425866
 Name=phosphorylethanolamine Abbr=PE Scale=1.0 Shift=0.0 PPM Start=-3.1207465171441986 PPM End=12.528391440425866
 Name=pyruvate Abbr=Pyr Scale=1.0 Shift=0.0 PPM Start=-3.1207465171441986 PPM End=12.528391440425866
 Name=taurine Abbr=Tau Scale=1.0 Shift=0.0 PPM Start=-3.1207465171441986 PPM End=12.528391440425866
 Name=glutathione-glutamate+glutathione-glycine-cysteine Abbr=GSH Scale=1.0 Shift=0.0 PPM Start=-3.1207565171441987 PPM End=12.528
   Mixture of [metab*scale] = glutathione-glutamate*1.000000 + glutathione-glycine-cysteine*1.000000
 
 ===========================================================================
 This LCModel format RAW file was created using the 
 Vespa-Simulation spectral simulation program using 
 the following settings and parameters 
 
 Sweep Width = 2000.0 Hz 
 Vector Size = 2048 points 
 Apodization = 14.0 Hz Lorentzian broadening
 B0 Field    = 127.74 MHz 
 Ref Singlet = False
  
 This data has been FFTd to be in the FREQUENCY domain
 
 $NMID ID='Gly'
 FMTDAT='(2E16.6)'
 VOLUME=1.0
 TRAMP=1.0
 $END
    1.209021E+00    4.239075E+00
    1.211770E+00    4.268297E+00
    1.214575E+00    4.297900E+00
    1.217437E+00    4.327894E+00
    1.220356E+00    4.358286E+00
    1.223334E+00    4.389085E+00
    1.226374E+00    4.420300E+00
    1.229476E+00    4.451939E+00
    1.232644E+00    4.484010E+00
    1.235878E+00    4.516524E+00
    1.239179E+00    4.549489E+00
    1.242551E+00    4.582916E+00
    1.245996E+00    4.616815E+00
    1.249516E+00    4.651196E+00
    1.253115E+00    4.686069E+00
    1.256795E+00    4.721444E+00
    1.260557E+00    4.757332E+00
    1.264404E+00    4.793744E+00
    1.268338E+00    4.830691E+00
    1.272362E+00    4.868186E+00
    1.276477E+00    4.906242E+00
    1.280688E+00    4.944872E+00
    1.284997E+00    4.984087E+00
    1.289406E+00    5.023903E+00
    1.293920E+00    5.064333E+00
    1.298540E+00    5.105392E+00
    1.303271E+00    5.147096E+00
    1.308117E+00    5.189459E+00
    1.313080E+00    5.232498E+00
    1.318167E+00    5.276229E+00
    1.323380E+00    5.320670E+00
    1.328725E+00    5.365837E+00
    1.334206E+00    5.411747E+00
    1.339826E+00    5.458420E+00
    1.345591E+00    5.505874E+00
    1.351505E+00    5.554130E+00
    1.357573E+00    5.603208E+00
    1.363800E+00    5.653130E+00
    1.370193E+00    5.703919E+00
    1.376756E+00    5.755597E+00
    1.383497E+00    5.808188E+00
    1.390421E+00    5.861716E+00
    1.397536E+00    5.916209E+00
    1.404848E+00    5.971691E+00
    1.412366E+00    6.028191E+00
    1.420097E+00    6.085738E+00
    1.428051E+00    6.144360E+00
    1.436237E+00    6.204086E+00
    1.444662E+00    6.264949E+00
    1.453337E+00    6.326980E+00
    1.462269E+00    6.390212E+00
    1.471470E+00    6.454683E+00
    1.480948E+00    6.520429E+00
    1.490716E+00    6.587488E+00
    1.500785E+00    6.655903E+00
    1.511168E+00    6.725713E+00
    1.521879E+00    6.796964E+00
    1.532933E+00    6.869701E+00
    1.544346E+00    6.943969E+00
    1.556133E+00    7.019817E+00
    1.568310E+00    7.097294E+00
    1.580894E+00    7.176453E+00
    1.593902E+00    7.257350E+00
    1.607352E+00    7.340043E+00
    1.621266E+00    7.424593E+00
    1.635663E+00    7.511064E+00
    1.650568E+00    7.599523E+00
    1.666004E+00    7.690039E+00
    1.681999E+00    7.782684E+00
    1.698580E+00    7.877534E+00
    1.715775E+00    7.974668E+00
    1.733615E+00    8.074168E+00
    1.752132E+00    8.176123E+00
    1.771361E+00    8.280623E+00
    1.791338E+00    8.387765E+00
    1.812103E+00    8.497649E+00
    1.833697E+00    8.610382E+00
    1.856165E+00    8.726076E+00
    1.879554E+00    8.844849E+00
    1.903916E+00    8.966823E+00
    1.929304E+00    9.092131E+00
    1.955779E+00    9.220909E+00
    1.983401E+00    9.353302E+00
    2.012240E+00    9.489463E+00
    2.042366E+00    9.629554E+00
    2.073857E+00    9.773745E+00
    2.106797E+00    9.922219E+00
    2.141275E+00    1.007516E+01
    2.177387E+00    1.023279E+01
    2.215239E+00    1.039530E+01
    2.254944E+00    1.056293E+01
    2.296622E+00    1.073593E+01
    2.340407E+00    1.091454E+01
    2.386442E+00    1.109905E+01
    2.434883E+00    1.128975E+01
    2.485900E+00    1.148695E+01
    2.539678E+00    1.169098E+01
    2.596418E+00    1.190219E+01
    2.656342E+00    1.212097E+01
    2.719690E+00    1.234772E+01
    2.786727E+00    1.258287E+01
    2.857741E+00    1.282690E+01
    2.933052E+00    1.308029E+01
    3.013010E+00    1.334360E+01
    3.098002E+00    1.361738E+01
    3.188458E+00    1.390228E+01
    3.284852E+00    1.419894E+01
    3.387708E+00    1.450811E+01
    3.497613E+00    1.483055E+01
    3.615216E+00    1.516711E+01
    3.741248E+00    1.551870E+01
    3.876525E+00    1.588632E+01
    4.021963E+00    1.627104E+01
    4.178593E+00    1.667401E+01
    4.347576E+00    1.709651E+01
    4.530229E+00    1.753992E+01
    4.728041E+00    1.800573E+01
    4.942712E+00    1.849557E+01
    5.176179E+00    1.901123E+01
    5.430661E+00    1.955465E+01
    5.708708E+00    2.012795E+01
    6.013258E+00    2.073344E+01
    6.347712E+00    2.137363E+01
    6.716016E+00    2.205126E+01
    7.122775E+00    2.276931E+01
    7.573376E+00    2.353099E+01
    8.074154E+00    2.433976E+01
    8.632583E+00    2.519933E+01
    9.257525E+00    2.611361E+01
    9.959527E+00    2.708669E+01
    1.075121E+01    2.812272E+01
    1.164771E+01    2.922577E+01
    1.266730E+01    3.039961E+01
    1.383210E+01    3.164727E+01
    1.516895E+01    3.297050E+01
    1.671053E+01    3.436880E+01
    1.849666E+01    3.583810E+01
    2.057580E+01    3.736857E+01
    2.300665E+01    3.894149E+01
    2.585967E+01    4.052458E+01
    2.921793E+01    4.206497E+01
    3.317620E+01    4.347931E+01
    3.783638E+01    4.464002E+01
    4.329565E+01    4.535753E+01
    4.962165E+01    4.536053E+01
    5.680754E+01    4.428083E+01
    6.470080E+01    4.165880E+01
    7.291149E+01    3.699773E+01
    8.073513E+01    2.990058E+01
    8.716958E+01    2.029331E+01
    9.111859E+01    8.652067E+00
    9.177763E+01   -3.947922E+00
    8.900228E+01   -1.610329E+01
    8.338098E+01   -2.656644E+01
    7.595090E+01   -3.462545E+01
    6.778526E+01   -4.016887E+01
    5.971097E+01   -4.350162E+01
    5.223019E+01   -4.510413E+01
    4.557365E+01   -4.546013E+01
    3.979324E+01   -4.497478E+01
    3.484275E+01   -4.395471E+01
    3.063230E+01   -4.261796E+01
    2.705981E+01   -4.111320E+01
    2.402700E+01   -3.953860E+01
    2.144615E+01   -3.795713E+01
    1.924210E+01   -3.640787E+01
    1.735187E+01   -3.491400E+01
    1.572332E+01   -3.348824E+01
    1.431358E+01   -3.213653E+01
    1.308745E+01   -3.086053E+01
    1.201602E+01   -2.965920E+01
    1.107551E+01   -2.852991E+01
