 Vespa-Simulation Mixed Metabolite Output
 This file was generated by Vespa-Simulation. You can learn about and download Vespa here:
https://github.com/vespa-mrs/vespa/tree/main/vespa

 
 Output Path/Filename = /home/stud/casperc/bhome/Project1(DeepFit)/DeepFit-data-generation/DeepFitData_TE_20_lw14_2048p
 Output Loop Values = (1,1,1)  ( Loop 1 = 10, Loop 2 = 10, Loop3 Inactive )
 Output Comment
 ---------------------------------------------------------------------------
 
 
 Experiment Information
 ---------------------------------------------------------------------------
 --- Experiment 18b0168e-f5f0-4bd4-8d52-da93aba06c60 ---
 Name: SyntheticDataSetDeepFitTE20
 Public: False
 Created: 2024-10-08T09:55:07
 Comment (abbr.): 
 PI: Casper Cappelen
 b0: 127.740000
 Peak Search PPM low/high: -15.000000 / 15.000000
 Blend tol. PPM/phase: 0.001500 / 50.000000
 Pulse seq.: 43be13ae-de9a-40a1-9a2d-c872d8bjs100 (PRESS Ideal)
 0 User static parameters: 
 22 Metabolites: 2-hydroxyglutarate, GPC-pcholine2, NAAG-truncated, alanine, choline-trimethyl, creatine, ethanolamine, gaba, glucose-beta, glutamate, glutamine, glutathione-glutamate, glutathione-glycine-cysteine, glycine, lactate, myo-inositol, n-acetylaspartate, phosphocreatine, phosphorylcholine-trimethyl, phosphorylethanolamine, pyruvate, taurine
 22 Simulations: (not shown)
 
 Metabolite Formatting Information
 ---------------------------------------------------------------------------
 Name=2-hydroxyglutarate Abbr=2HG Scale=1.0 Shift=0.0 PPM Start=-3.1207465171441986 PPM End=12.528391440425866
 Name=GPC-pcholine2 Abbr=GPC Scale=1.0 Shift=0.0 PPM Start=-3.1207465171441986 PPM End=12.528391440425866
 Name=NAAG-truncated Abbr=NAAG Scale=1.0 Shift=0.0 PPM Start=-3.1207465171441986 PPM End=12.528391440425866
 Name=alanine Abbr=Ala Scale=1.0 Shift=0.0 PPM Start=-3.1207465171441986 PPM End=12.528391440425866
 Name=choline-trimethyl Abbr=Cho Scale=1.0 Shift=0.0 PPM Start=-3.1207465171441986 PPM End=12.528391440425866
 Name=creatine Abbr=Cr Scale=1.0 Shift=0.0 PPM Start=-3.1207465171441986 PPM End=12.528391440425866
 Name=ethanolamine Abbr=ETA Scale=1.0 Shift=0.0 PPM Start=-3.1207465171441986 PPM End=12.528391440425866
 Name=gaba Abbr=GABA Scale=1.0 Shift=0.0 PPM Start=-3.1207465171441986 PPM End=12.528391440425866
 Name=glucose-beta Abbr=Glc Scale=1.0 Shift=0.0 PPM Start=-3.1207465171441986 PPM End=12.528391440425866
 Name=glutamate Abbr=Glu Scale=1.0 Shift=0.0 PPM Start=-3.1207465171441986 PPM End=12.528391440425866
 Name=glutamine Abbr=Gln Scale=1.0 Shift=0.0 PPM Start=-3.1207465171441986 PPM End=12.528391440425866
 Name=glycine Abbr=Gly Scale=1.0 Shift=0.0 PPM Start=-3.1207465171441986 PPM End=12.528391440425866
 Name=lactate Abbr=Lac Scale=1.0 Shift=0.0 PPM Start=-3.1207465171441986 PPM End=12.528391440425866
 Name=myo-inositol Abbr=mI Scale=1.0 Shift=0.0 PPM Start=-3.1207465171441986 PPM End=12.528391440425866
 Name=n-acetylaspartate Abbr=NAA Scale=1.0 Shift=0.0 PPM Start=-3.1207465171441986 PPM End=12.528391440425866
 Name=phosphocreatine Abbr=PCr Scale=1.0 Shift=0.0 PPM Start=-3.1207465171441986 PPM End=12.528391440425866
 Name=phosphorylcholine-trimethyl Abbr=PCho Scale=1.0 Shift=0.0 PPM Start=-3.1207465171441986 PPM End=12.528391440425866
 Name=phosphorylethanolamine Abbr=PE Scale=1.0 Shift=0.0 PPM Start=-3.1207465171441986 PPM End=12.528391440425866
 Name=pyruvate Abbr=Pyr Scale=1.0 Shift=0.0 PPM Start=-3.1207465171441986 PPM End=12.528391440425866
 Name=taurine Abbr=Tau Scale=1.0 Shift=0.0 PPM Start=-3.1207465171441986 PPM End=12.528391440425866
 Name=glutathione-glutamate+glutathione-glycine-cysteine Abbr=GSH Scale=1.0 Shift=0.0 PPM Start=-3.1207565171441987 PPM End=12.528
   Mixture of [metab*scale] = glutathione-glutamate*1.000000 + glutathione-glycine-cysteine*1.000000
 
 ===========================================================================
 This LCModel format RAW file was created using the 
 Vespa-Simulation spectral simulation program using 
 the following settings and parameters 
 
 Sweep Width = 2000.0 Hz 
 Vector Size = 2048 points 
 Apodization = 14.0 Hz Lorentzian broadening
 B0 Field    = 127.74 MHz 
 Ref Singlet = False
  
 $NMID ID='GPC'
 FMTDAT='(2E16.6)'
 VOLUME=1.0
 TRAMP=1.0
 $END
    9.000000E+00   -1.513524E-16
    7.280616E+00    4.950482E+00
    3.166677E+00    8.009458E+00
   -1.843921E+00    8.221153E+00
   -6.013730E+00    5.636303E+00
   -7.965118E+00    1.251665E+00
   -7.131923E+00   -3.368702E+00
   -3.916451E+00   -6.648076E+00
    4.885598E-01   -7.532268E+00
    4.538358E+00   -5.824564E+00
    6.875161E+00   -2.215480E+00
    6.780344E+00    1.989481E+00
    4.390685E+00    5.338959E+00
    6.151601E-01    6.734103E+00
   -3.206481E+00    5.785971E+00
   -5.776492E+00    2.916885E+00
   -6.277375E+00   -8.177697E-01
   -4.628310E+00   -4.114436E+00
   -1.480983E+00   -5.874212E+00
    2.033081E+00   -5.566606E+00
    4.706609E+00   -3.384840E+00
    5.669290E+00   -1.493019E-01
    4.668336E+00    2.997636E+00
    2.127622E+00    4.992795E+00
   -1.025152E+00    5.209264E+00
   -3.694681E+00    3.650182E+00
   -4.996635E+00    9.205670E-01
   -4.548425E+00   -2.003720E+00
   -2.577326E+00   -4.122802E+00
    1.827840E-01   -4.752840E+00
    2.762183E+00   -3.744302E+00
    4.294056E+00   -1.509630E+00
    4.304077E+00    1.140766E+00
    2.854354E+00    3.290285E+00
    4.991855E-01    4.231751E+00
   -1.923846E+00    3.697898E+00
   -3.590339E+00    1.933247E+00
   -3.967817E+00   -4.109944E-01
   -2.983742E+00   -2.514969E+00
   -1.030325E+00   -3.675728E+00
    1.188336E+00   -3.540249E+00
    2.908656E+00   -2.210241E+00
    3.568728E+00   -1.880968E-01
    2.990398E+00    1.810851E+00
    1.423060E+00    3.109772E+00
   -5.593710E-01    3.298427E+00
   -2.266804E+00    2.360618E+00
   -3.132210E+00    6.627960E-01
   -2.898389E+00   -1.186731E+00
   -1.691924E+00   -2.554273E+00
    3.631507E-02   -2.996946E+00
    1.677843E+00   -2.404437E+00
    2.679880E+00   -1.022164E+00
    2.730158E+00    6.471729E-01
    1.852586E+00    2.025282E+00
    3.846669E-01    2.657386E+00
   -1.150543E+00    2.361291E+00
   -2.229568E+00    1.277338E+00
   -2.506231E+00   -1.930541E-01
   -1.921232E+00   -1.534748E+00
   -7.100164E-01   -2.298322E+00
    6.898439E-01   -2.249786E+00
    1.795548E+00   -1.440542E+00
    2.244898E+00   -1.776725E-01
    1.913748E+00    1.091099E+00
    9.480172E-01    1.935297E+00
   -2.976271E-01    2.087031E+00
   -1.388758E+00    1.524597E+00
   -1.962059E+00    4.694286E-01
   -1.845448E+00   -6.994523E-01
   -1.108141E+00   -1.580931E+00
   -2.682784E-02   -1.888442E+00
    1.017010E+00   -1.542447E+00
    1.671151E+00   -6.883509E-01
    1.730517E+00    3.623890E-01
    1.200572E+00    1.245043E+00
    2.864050E-01    1.667560E+00
   -6.855691E-01    1.506518E+00
   -1.383268E+00    8.415986E-01
   -1.581928E+00   -8.006577E-02
   -1.235691E+00   -9.348901E-01
   -4.853713E-01   -1.435986E+00
    3.972352E-01   -1.428629E+00
    1.107150E+00   -9.372218E-01
    1.411160E+00   -1.491703E-01
    1.223615E+00    6.555503E-01
    6.292555E-01    1.203371E+00
   -1.528505E-01    1.319603E+00
   -8.495092E-01    9.834203E-01
   -1.228153E+00    3.282604E-01
   -1.174081E+00   -4.100100E-01
   -7.242741E-01   -9.774734E-01
   -4.823525E-02   -1.189124E+00
    6.150690E-01   -9.884780E-01
    1.041271E+00   -4.613370E-01
    1.096102E+00    1.995611E-01
    7.769250E-01    7.643572E-01
    2.080540E-01    1.045684E+00
   -4.068559E-01    9.603631E-01
   -8.573845E-01    5.530939E-01
   -9.978185E-01   -2.418540E-02
   -7.938850E-01   -5.684244E-01
   -3.295736E-01   -8.965038E-01
    2.265209E-01   -9.065147E-01
    6.818819E-01   -6.087281E-01
    8.864442E-01   -1.173816E-01
    7.816586E-01    3.926408E-01
    4.163494E-01    7.475869E-01
   -7.441011E-02    8.337797E-01
   -5.188052E-01    6.335733E-01
   -7.681922E-01    2.271574E-01
   -7.463818E-01   -2.387918E-01
   -4.724382E-01   -6.037258E-01
   -5.011611E-02   -7.482538E-01
    3.710425E-01   -6.328691E-01
    6.482718E-01   -3.078660E-01
    6.937692E-01    1.075196E-01
    5.020848E-01    4.685928E-01
    1.484092E-01    6.552462E-01
   -2.403683E-01    6.116973E-01
   -5.309067E-01    3.626325E-01
   -6.289481E-01    1.322392E-03
   -5.095171E-01   -3.448892E-01
   -2.224658E-01   -5.592639E-01
    1.276480E-01   -5.747914E-01
    4.194308E-01   -3.947653E-01
    5.564443E-01   -8.863478E-02
    4.988919E-01    2.343761E-01
    2.746594E-01    4.640196E-01
   -3.302252E-02    5.264510E-01
   -3.162932E-01    4.077100E-01
   -4.801311E-01    1.558382E-01
   -4.741239E-01   -1.380349E-01
   -3.076166E-01   -3.724601E-01
   -4.397221E-02   -4.705103E-01
    2.232372E-01   -4.048082E-01
    4.032570E-01   -2.046771E-01
    4.388040E-01    5.621679E-02
    3.240493E-01    2.868451E-01
    1.043588E-01    4.102906E-01
   -1.412629E-01    3.893095E-01
   -3.284185E-01    2.372302E-01
   -3.961659E-01    1.125841E-02
   -3.266725E-01   -2.088073E-01
   -1.494258E-01   -3.485965E-01
    7.087037E-02   -3.641913E-01
    2.576577E-01   -2.556308E-01
    3.490452E-01   -6.506627E-02
    3.181516E-01    1.393601E-01
    1.807134E-01    2.877381E-01
   -1.208442E-02    3.321697E-01
   -1.924744E-01    2.620735E-01
   -2.998587E-01    1.061328E-01
   -3.009511E-01   -7.908371E-02
   -1.999546E-01   -2.295161E-01
   -3.550643E-02   -2.956547E-01
    1.339046E-01   -2.587014E-01
    2.506238E-01   -1.356218E-01
    2.773430E-01    2.814629E-02
    2.088852E-01    1.753126E-01
    7.254598E-02    2.567190E-01
   -8.252445E-02    2.475783E-01
   -2.029412E-01    1.548859E-01
   -2.493664E-01    1.366568E-02
   -2.092427E-01   -1.261115E-01
   -9.989872E-02   -2.171142E-01
    3.859954E-02   -2.305878E-01
    1.580622E-01   -1.653026E-01
    2.187912E-01   -4.677848E-02
    2.027228E-01    8.250659E-02
    1.186097E-01    1.782536E-01
   -2.100379E-03    2.094412E-01
   -1.169043E-01    1.682728E-01
   -1.871262E-01    7.183099E-02
