 Vespa-Simulation Mixed Metabolite Output
 This file was generated by Vespa-Simulation. You can learn about and download Vespa here:
https://github.com/vespa-mrs/vespa/tree/main/vespa

 
 Output Path/Filename = /home/stud/casperc/bhome/Project1(DeepFit)/DeepFit-data-generation/DeepFitData_TE_20_lw14_2048p
 Output Loop Values = (1,1,1)  ( Loop 1 = 10, Loop 2 = 10, Loop3 Inactive )
 Output Comment
 ---------------------------------------------------------------------------
 
 
 Experiment Information
 ---------------------------------------------------------------------------
 --- Experiment 18b0168e-f5f0-4bd4-8d52-da93aba06c60 ---
 Name: SyntheticDataSetDeepFitTE20
 Public: False
 Created: 2024-10-08T09:55:07
 Comment (abbr.): 
 PI: Casper Cappelen
 b0: 127.740000
 Peak Search PPM low/high: -15.000000 / 15.000000
 Blend tol. PPM/phase: 0.001500 / 50.000000
 Pulse seq.: 43be13ae-de9a-40a1-9a2d-c872d8bjs100 (PRESS Ideal)
 0 User static parameters: 
 22 Metabolites: 2-hydroxyglutarate, GPC-pcholine2, NAAG-truncated, alanine, choline-trimethyl, creatine, ethanolamine, gaba, glucose-beta, glutamate, glutamine, glutathione-glutamate, glutathione-glycine-cysteine, glycine, lactate, myo-inositol, n-acetylaspartate, phosphocreatine, phosphorylcholine-trimethyl, phosphorylethanolamine, pyruvate, taurine
 22 Simulations: (not shown)
 
 Metabolite Formatting Information
 ---------------------------------------------------------------------------
 Name=2-hydroxyglutarate Abbr=2HG Scale=1.0 Shift=0.0 PPM Start=-3.1207465171441986 PPM End=12.528391440425866
 Name=GPC-pcholine2 Abbr=GPC Scale=1.0 Shift=0.0 PPM Start=-3.1207465171441986 PPM End=12.528391440425866
 Name=NAAG-truncated Abbr=NAAG Scale=1.0 Shift=0.0 PPM Start=-3.1207465171441986 PPM End=12.528391440425866
 Name=alanine Abbr=Ala Scale=1.0 Shift=0.0 PPM Start=-3.1207465171441986 PPM End=12.528391440425866
 Name=choline-trimethyl Abbr=Cho Scale=1.0 Shift=0.0 PPM Start=-3.1207465171441986 PPM End=12.528391440425866
 Name=creatine Abbr=Cr Scale=1.0 Shift=0.0 PPM Start=-3.1207465171441986 PPM End=12.528391440425866
 Name=ethanolamine Abbr=ETA Scale=1.0 Shift=0.0 PPM Start=-3.1207465171441986 PPM End=12.528391440425866
 Name=gaba Abbr=GABA Scale=1.0 Shift=0.0 PPM Start=-3.1207465171441986 PPM End=12.528391440425866
 Name=glucose-beta Abbr=Glc Scale=1.0 Shift=0.0 PPM Start=-3.1207465171441986 PPM End=12.528391440425866
 Name=glutamate Abbr=Glu Scale=1.0 Shift=0.0 PPM Start=-3.1207465171441986 PPM End=12.528391440425866
 Name=glutamine Abbr=Gln Scale=1.0 Shift=0.0 PPM Start=-3.1207465171441986 PPM End=12.528391440425866
 Name=glycine Abbr=Gly Scale=1.0 Shift=0.0 PPM Start=-3.1207465171441986 PPM End=12.528391440425866
 Name=lactate Abbr=Lac Scale=1.0 Shift=0.0 PPM Start=-3.1207465171441986 PPM End=12.528391440425866
 Name=myo-inositol Abbr=mI Scale=1.0 Shift=0.0 PPM Start=-3.1207465171441986 PPM End=12.528391440425866
 Name=n-acetylaspartate Abbr=NAA Scale=1.0 Shift=0.0 PPM Start=-3.1207465171441986 PPM End=12.528391440425866
 Name=phosphocreatine Abbr=PCr Scale=1.0 Shift=0.0 PPM Start=-3.1207465171441986 PPM End=12.528391440425866
 Name=phosphorylcholine-trimethyl Abbr=PCho Scale=1.0 Shift=0.0 PPM Start=-3.1207465171441986 PPM End=12.528391440425866
 Name=phosphorylethanolamine Abbr=PE Scale=1.0 Shift=0.0 PPM Start=-3.1207465171441986 PPM End=12.528391440425866
 Name=pyruvate Abbr=Pyr Scale=1.0 Shift=0.0 PPM Start=-3.1207465171441986 PPM End=12.528391440425866
 Name=taurine Abbr=Tau Scale=1.0 Shift=0.0 PPM Start=-3.1207465171441986 PPM End=12.528391440425866
 Name=glutathione-glutamate+glutathione-glycine-cysteine Abbr=GSH Scale=1.0 Shift=0.0 PPM Start=-3.1207565171441987 PPM End=12.528
   Mixture of [metab*scale] = glutathione-glutamate*1.000000 + glutathione-glycine-cysteine*1.000000
 
 ===========================================================================
 This LCModel format RAW file was created using the 
 Vespa-Simulation spectral simulation program using 
 the following settings and parameters 
 
 Sweep Width = 2000.0 Hz 
 Vector Size = 2048 points 
 Apodization = 14.0 Hz Lorentzian broadening
 B0 Field    = 127.74 MHz 
 Ref Singlet = False
  
 This data has been FFTd to be in the FREQUENCY domain
 
 $NMID ID='GPC'
 FMTDAT='(2E16.6)'
 VOLUME=1.0
 TRAMP=1.0
 $END
    5.070953E+00    1.460071E+01
    5.076681E+00    1.468058E+01
    5.082497E+00    1.476125E+01
    5.088400E+00    1.484273E+01
    5.094393E+00    1.492504E+01
    5.100479E+00    1.500820E+01
    5.106664E+00    1.509221E+01
    5.112955E+00    1.517710E+01
    5.119359E+00    1.526288E+01
    5.125881E+00    1.534955E+01
    5.132524E+00    1.543712E+01
    5.139286E+00    1.552561E+01
    5.146164E+00    1.561501E+01
    5.153153E+00    1.570535E+01
    5.160248E+00    1.579664E+01
    5.167446E+00    1.588890E+01
    5.174747E+00    1.598217E+01
    5.182158E+00    1.607645E+01
    5.189682E+00    1.617178E+01
    5.197327E+00    1.626816E+01
    5.205097E+00    1.636563E+01
    5.212997E+00    1.646420E+01
    5.221032E+00    1.656388E+01
    5.229208E+00    1.666470E+01
    5.237532E+00    1.676668E+01
    5.246011E+00    1.686984E+01
    5.254650E+00    1.697419E+01
    5.263453E+00    1.707975E+01
    5.272422E+00    1.718654E+01
    5.281560E+00    1.729458E+01
    5.290866E+00    1.740390E+01
    5.300344E+00    1.751451E+01
    5.309997E+00    1.762644E+01
    5.319830E+00    1.773971E+01
    5.329846E+00    1.785436E+01
    5.340050E+00    1.797040E+01
    5.350447E+00    1.808787E+01
    5.361040E+00    1.820678E+01
    5.371834E+00    1.832718E+01
    5.382835E+00    1.844909E+01
    5.394051E+00    1.857253E+01
    5.405488E+00    1.869754E+01
    5.417154E+00    1.882415E+01
    5.429055E+00    1.895239E+01
    5.441196E+00    1.908228E+01
    5.453583E+00    1.921386E+01
    5.466218E+00    1.934716E+01
    5.479106E+00    1.948222E+01
    5.492255E+00    1.961908E+01
    5.505671E+00    1.975776E+01
    5.519364E+00    1.989832E+01
    5.533341E+00    2.004079E+01
    5.547609E+00    2.018521E+01
    5.562176E+00    2.033162E+01
    5.577049E+00    2.048006E+01
    5.592238E+00    2.063059E+01
    5.607756E+00    2.078324E+01
    5.623614E+00    2.093806E+01
    5.639826E+00    2.109510E+01
    5.656402E+00    2.125440E+01
    5.673352E+00    2.141601E+01
    5.690683E+00    2.157998E+01
    5.708406E+00    2.174636E+01
    5.726531E+00    2.191522E+01
    5.745072E+00    2.208659E+01
    5.764042E+00    2.226055E+01
    5.783454E+00    2.243716E+01
    5.803320E+00    2.261646E+01
    5.823655E+00    2.279854E+01
    5.844471E+00    2.298344E+01
    5.865786E+00    2.317125E+01
    5.887615E+00    2.336203E+01
    5.909978E+00    2.355586E+01
    5.932894E+00    2.375281E+01
    5.956383E+00    2.395295E+01
    5.980464E+00    2.415636E+01
    6.005158E+00    2.436313E+01
    6.030482E+00    2.457333E+01
    6.056456E+00    2.478704E+01
    6.083102E+00    2.500438E+01
    6.110442E+00    2.522541E+01
    6.138502E+00    2.545025E+01
    6.167306E+00    2.567900E+01
    6.196880E+00    2.591175E+01
    6.227253E+00    2.614861E+01
    6.258454E+00    2.638970E+01
    6.290512E+00    2.663513E+01
    6.323461E+00    2.688502E+01
    6.357336E+00    2.713951E+01
    6.392175E+00    2.739870E+01
    6.428019E+00    2.766274E+01
    6.464905E+00    2.793176E+01
    6.502875E+00    2.820590E+01
    6.541967E+00    2.848530E+01
    6.582222E+00    2.877012E+01
    6.623685E+00    2.906051E+01
    6.666400E+00    2.935665E+01
    6.710421E+00    2.965872E+01
    6.755799E+00    2.996689E+01
    6.802595E+00    3.028135E+01
    6.850869E+00    3.060231E+01
    6.900690E+00    3.092995E+01
    6.952127E+00    3.126451E+01
    7.005252E+00    3.160618E+01
    7.060138E+00    3.195519E+01
    7.116859E+00    3.231179E+01
    7.175492E+00    3.267622E+01
    7.236121E+00    3.304874E+01
    7.298835E+00    3.342963E+01
    7.363733E+00    3.381919E+01
    7.430919E+00    3.421770E+01
    7.500505E+00    3.462549E+01
    7.572609E+00    3.504287E+01
    7.647355E+00    3.547019E+01
    7.724871E+00    3.590781E+01
    7.805298E+00    3.635610E+01
    7.888779E+00    3.681545E+01
    7.975472E+00    3.728627E+01
    8.065541E+00    3.776901E+01
    8.159162E+00    3.826411E+01
    8.256524E+00    3.877205E+01
    8.357827E+00    3.929334E+01
    8.463288E+00    3.982852E+01
    8.573137E+00    4.037813E+01
    8.687621E+00    4.094277E+01
    8.807003E+00    4.152305E+01
    8.931568E+00    4.211964E+01
    9.061618E+00    4.273322E+01
    9.197480E+00    4.336452E+01
    9.339503E+00    4.401431E+01
    9.488063E+00    4.468341E+01
    9.643565E+00    4.537269E+01
    9.806446E+00    4.608305E+01
    9.977179E+00    4.681547E+01
    1.015627E+01    4.757098E+01
    1.034428E+01    4.835068E+01
    1.054179E+01    4.915572E+01
    1.074947E+01    4.998736E+01
    1.096801E+01    5.084690E+01
    1.119817E+01    5.173576E+01
    1.144081E+01    5.265544E+01
    1.169682E+01    5.360754E+01
    1.196721E+01    5.459377E+01
    1.225307E+01    5.561597E+01
    1.255558E+01    5.667608E+01
    1.287607E+01    5.777621E+01
    1.321596E+01    5.891863E+01
    1.357684E+01    6.010575E+01
    1.396047E+01    6.134019E+01
    1.436879E+01    6.262474E+01
    1.480394E+01    6.396244E+01
    1.526829E+01    6.535653E+01
    1.576449E+01    6.681055E+01
    1.629550E+01    6.832831E+01
    1.686460E+01    6.991394E+01
    1.747550E+01    7.157189E+01
    1.813234E+01    7.330703E+01
    1.883978E+01    7.512461E+01
    1.960309E+01    7.703035E+01
    2.042822E+01    7.903048E+01
    2.132193E+01    8.113176E+01
    2.229190E+01    8.334159E+01
    2.334692E+01    8.566801E+01
    2.449703E+01    8.811980E+01
    2.575379E+01    9.070654E+01
    2.713052E+01    9.343865E+01
    2.864263E+01    9.632752E+01
    3.030801E+01    9.938550E+01
    3.214755E+01    1.026260E+02
    3.418567E+01    1.060636E+02
    3.645112E+01    1.097140E+02
    3.897780E+01    1.135937E+02
