 Vespa-Simulation Mixed Metabolite Output
 This file was generated by Vespa-Simulation. You can learn about and download Vespa here:
https://github.com/vespa-mrs/vespa/tree/main/vespa

 
 Output Path/Filename = /home/stud/casperc/bhome/Project1(DeepFit)/DeepFit-data-generation/DeepFitData_TE_20_lw14_2048p
 Output Loop Values = (1,1,1)  ( Loop 1 = 10, Loop 2 = 10, Loop3 Inactive )
 Output Comment
 ---------------------------------------------------------------------------
 
 
 Experiment Information
 ---------------------------------------------------------------------------
 --- Experiment 18b0168e-f5f0-4bd4-8d52-da93aba06c60 ---
 Name: SyntheticDataSetDeepFitTE20
 Public: False
 Created: 2024-10-08T09:55:07
 Comment (abbr.): 
 PI: Casper Cappelen
 b0: 127.740000
 Peak Search PPM low/high: -15.000000 / 15.000000
 Blend tol. PPM/phase: 0.001500 / 50.000000
 Pulse seq.: 43be13ae-de9a-40a1-9a2d-c872d8bjs100 (PRESS Ideal)
 0 User static parameters: 
 22 Metabolites: 2-hydroxyglutarate, GPC-pcholine2, NAAG-truncated, alanine, choline-trimethyl, creatine, ethanolamine, gaba, glucose-beta, glutamate, glutamine, glutathione-glutamate, glutathione-glycine-cysteine, glycine, lactate, myo-inositol, n-acetylaspartate, phosphocreatine, phosphorylcholine-trimethyl, phosphorylethanolamine, pyruvate, taurine
 22 Simulations: (not shown)
 
 Metabolite Formatting Information
 ---------------------------------------------------------------------------
 Name=2-hydroxyglutarate Abbr=2HG Scale=1.0 Shift=0.0 PPM Start=-3.1207465171441986 PPM End=12.528391440425866
 Name=GPC-pcholine2 Abbr=GPC Scale=1.0 Shift=0.0 PPM Start=-3.1207465171441986 PPM End=12.528391440425866
 Name=NAAG-truncated Abbr=NAAG Scale=1.0 Shift=0.0 PPM Start=-3.1207465171441986 PPM End=12.528391440425866
 Name=alanine Abbr=Ala Scale=1.0 Shift=0.0 PPM Start=-3.1207465171441986 PPM End=12.528391440425866
 Name=choline-trimethyl Abbr=Cho Scale=1.0 Shift=0.0 PPM Start=-3.1207465171441986 PPM End=12.528391440425866
 Name=creatine Abbr=Cr Scale=1.0 Shift=0.0 PPM Start=-3.1207465171441986 PPM End=12.528391440425866
 Name=ethanolamine Abbr=ETA Scale=1.0 Shift=0.0 PPM Start=-3.1207465171441986 PPM End=12.528391440425866
 Name=gaba Abbr=GABA Scale=1.0 Shift=0.0 PPM Start=-3.1207465171441986 PPM End=12.528391440425866
 Name=glucose-beta Abbr=Glc Scale=1.0 Shift=0.0 PPM Start=-3.1207465171441986 PPM End=12.528391440425866
 Name=glutamate Abbr=Glu Scale=1.0 Shift=0.0 PPM Start=-3.1207465171441986 PPM End=12.528391440425866
 Name=glutamine Abbr=Gln Scale=1.0 Shift=0.0 PPM Start=-3.1207465171441986 PPM End=12.528391440425866
 Name=glycine Abbr=Gly Scale=1.0 Shift=0.0 PPM Start=-3.1207465171441986 PPM End=12.528391440425866
 Name=lactate Abbr=Lac Scale=1.0 Shift=0.0 PPM Start=-3.1207465171441986 PPM End=12.528391440425866
 Name=myo-inositol Abbr=mI Scale=1.0 Shift=0.0 PPM Start=-3.1207465171441986 PPM End=12.528391440425866
 Name=n-acetylaspartate Abbr=NAA Scale=1.0 Shift=0.0 PPM Start=-3.1207465171441986 PPM End=12.528391440425866
 Name=phosphocreatine Abbr=PCr Scale=1.0 Shift=0.0 PPM Start=-3.1207465171441986 PPM End=12.528391440425866
 Name=phosphorylcholine-trimethyl Abbr=PCho Scale=1.0 Shift=0.0 PPM Start=-3.1207465171441986 PPM End=12.528391440425866
 Name=phosphorylethanolamine Abbr=PE Scale=1.0 Shift=0.0 PPM Start=-3.1207465171441986 PPM End=12.528391440425866
 Name=pyruvate Abbr=Pyr Scale=1.0 Shift=0.0 PPM Start=-3.1207465171441986 PPM End=12.528391440425866
 Name=taurine Abbr=Tau Scale=1.0 Shift=0.0 PPM Start=-3.1207465171441986 PPM End=12.528391440425866
 Name=glutathione-glutamate+glutathione-glycine-cysteine Abbr=GSH Scale=1.0 Shift=0.0 PPM Start=-3.1207565171441987 PPM End=12.528
   Mixture of [metab*scale] = glutathione-glutamate*1.000000 + glutathione-glycine-cysteine*1.000000
 
 ===========================================================================
 This LCModel format RAW file was created using the 
 Vespa-Simulation spectral simulation program using 
 the following settings and parameters 
 
 Sweep Width = 2000.0 Hz 
 Vector Size = 2048 points 
 Apodization = 14.0 Hz Lorentzian broadening
 B0 Field    = 127.74 MHz 
 Ref Singlet = False
  
 $NMID ID='GSH'
 FMTDAT='(2E16.6)'
 VOLUME=1.0
 TRAMP=1.0
 $END
    1.034688E+01    1.617844E-02
    7.537114E+00    4.412830E+00
    1.644378E+00    6.229150E+00
   -3.132320E+00    4.940440E+00
   -3.963609E+00    2.061931E+00
   -1.387239E+00   -2.062102E-01
    1.583791E+00   -6.438581E-01
    2.224826E+00    3.333280E-01
    2.569175E-01    1.364026E+00
   -2.309034E+00    1.391305E+00
   -3.208330E+00    3.830725E-01
   -1.867787E+00   -9.190921E-01
    3.820946E-01   -1.774275E+00
    1.763059E+00   -1.965720E+00
    1.663557E+00   -1.714465E+00
    9.597242E-01   -1.261325E+00
    9.287728E-01   -6.260164E-01
    1.923463E+00    2.592565E-01
    3.060838E+00    1.289176E+00
    3.117859E+00    2.147667E+00
    1.701933E+00    2.546082E+00
   -3.985827E-01    2.461124E+00
   -1.930428E+00    2.100928E+00
   -2.219429E+00    1.645039E+00
   -1.590959E+00    1.067272E+00
   -8.858986E-01    2.595234E-01
   -6.371670E-01   -6.779925E-01
   -6.994242E-01   -1.339968E+00
   -5.933944E-01   -1.302157E+00
   -1.157322E-01   -5.634474E-01
    4.354124E-01    3.135996E-01
    6.172201E-01    5.916080E-01
    3.680820E-01   -1.699457E-03
    1.272303E-01   -9.574402E-01
    3.985145E-01   -1.336204E+00
    1.182278E+00   -5.435567E-01
    1.854459E+00    1.120284E+00
    1.659066E+00    2.628805E+00
    3.967556E-01    3.001839E+00
   -1.313595E+00    2.049007E+00
   -2.457765E+00    4.762939E-01
   -2.393458E+00   -7.049382E-01
   -1.323882E+00   -9.479689E-01
   -9.883224E-02   -4.900367E-01
    4.671046E-01   -1.555705E-02
    1.882037E-01   -2.128043E-02
   -4.445783E-01   -4.463702E-01
   -7.418027E-01   -8.357473E-01
   -3.840798E-01   -8.140403E-01
    3.758877E-01   -4.089766E-01
    9.869654E-01    4.023087E-02
    1.066001E+00    2.457485E-01
    6.611554E-01    2.315114E-01
    1.356110E-01    2.559883E-01
   -1.749884E-01    5.056744E-01
   -2.196851E-01    8.771954E-01
   -2.086620E-01    1.058900E+00
   -3.706069E-01    8.233209E-01
   -7.237049E-01    2.455620E-01
   -1.051690E+00   -3.539492E-01
   -1.086891E+00   -6.773804E-01
   -7.341591E-01   -6.744876E-01
   -1.532084E-01   -5.293028E-01
    3.556669E-01   -4.479008E-01
    5.621356E-01   -4.648396E-01
    4.506867E-01   -4.471700E-01
    2.024473E-01   -2.700675E-01
    4.431581E-02    2.633381E-02
    8.638897E-02    2.602017E-01
    2.619459E-01    2.863562E-01
    3.984954E-01    1.487368E-01
    3.534825E-01    4.957696E-02
    1.117872E-01    1.560450E-01
   -2.169999E-01    4.251419E-01
   -4.843058E-01    6.172389E-01
   -5.979934E-01    4.973769E-01
   -5.593657E-01    4.963368E-02
   -4.289792E-01   -4.865479E-01
   -2.649420E-01   -7.941038E-01
   -9.028259E-02   -7.209227E-01
    9.090704E-02   -3.845871E-01
    2.578430E-01   -5.929368E-02
    3.633940E-01    4.991138E-02
    3.664307E-01   -4.606657E-02
    2.754587E-01   -1.643843E-01
    1.562522E-01   -1.294817E-01
    8.671215E-02    7.551586E-02
    9.327472E-02    3.088331E-01
    1.259822E-01    4.054026E-01
    9.965241E-02    3.181552E-01
   -2.991759E-02    1.437058E-01
   -2.198462E-01    2.199682E-02
   -3.664410E-01    9.615715E-03
   -3.840970E-01    4.070132E-02
   -2.707205E-01    3.065239E-03
   -1.046346E-01   -1.465700E-01
    2.242502E-02   -3.341130E-01
    7.653134E-02   -4.278065E-01
    9.578013E-02   -3.502350E-01
    1.391185E-01   -1.438412E-01
    2.201640E-01    6.429709E-02
    2.886058E-01    1.642747E-01
    2.761813E-01    1.434654E-01
    1.640580E-01    8.085557E-02
    8.245789E-03    6.785262E-02
   -1.023052E-01    1.284044E-01
   -1.186703E-01    2.053590E-01
   -7.096753E-02    2.183417E-01
   -3.841358E-02    1.371241E-01
   -7.676925E-02    6.018015E-03
   -1.673123E-01   -9.775214E-02
   -2.320236E-01   -1.302339E-01
   -2.011677E-01   -1.118782E-01
   -7.398124E-02   -9.901554E-02
    7.946889E-02   -1.254828E-01
    1.749727E-01   -1.690406E-01
    1.791581E-01   -1.724807E-01
    1.278643E-01   -9.883940E-02
    8.592677E-02    2.994400E-02
    8.742088E-02    1.460244E-01
    1.094766E-01    1.889009E-01
    9.996945E-02    1.524171E-01
    3.078182E-02    8.535422E-02
   -7.276699E-02    4.673030E-02
   -1.518609E-01    5.579405E-02
   -1.639761E-01    7.970629E-02
   -1.172722E-01    6.764314E-02
   -5.995478E-02   -5.388921E-04
   -3.601061E-02   -9.417934E-02
   -4.788062E-02   -1.568797E-01
   -5.855386E-02   -1.535341E-01
   -2.931634E-02   -9.790776E-02
    4.220202E-02   -3.791089E-02
    1.176781E-01   -1.317433E-02
    1.503316E-01   -2.285259E-02
    1.241444E-01   -3.093012E-02
    6.545001E-02   -2.460158E-03
    1.796073E-02    6.248707E-02
    4.747008E-03    1.269855E-01
    1.113380E-02    1.480722E-01
    2.513517E-03    1.123935E-01
   -4.031327E-02    4.579367E-02
   -1.005790E-01   -9.989303E-03
   -1.379944E-01   -3.162824E-02
   -1.228143E-01   -2.940517E-02
   -6.145602E-02   -3.176579E-02
    8.269412E-03   -5.523520E-02
    4.752934E-02   -8.790586E-02
    4.602358E-02   -1.008421E-01
    2.624528E-02   -7.590642E-02
    2.057005E-02   -2.386347E-02
    4.222734E-02    2.385868E-02
    7.495352E-02    4.204662E-02
    8.869518E-02    3.264273E-02
    6.624154E-02    2.094893E-02
    1.750885E-02    3.087471E-02
   -2.968716E-02    6.191149E-02
   -5.286471E-02    8.866437E-02
   -5.148506E-02    8.323184E-02
   -4.348047E-02    4.024435E-02
   -4.634711E-02   -1.770823E-02
   -6.029320E-02   -5.862201E-02
   -6.815502E-02   -6.670845E-02
   -5.148285E-02   -5.246974E-02
   -8.366336E-03   -3.936410E-02
    4.245593E-02   -4.048422E-02
    7.464906E-02   -4.712709E-02
    7.364555E-02   -3.934172E-02
    4.667229E-02   -7.820641E-03
    1.599833E-02    3.415295E-02
    1.491248E-03    6.054210E-02
    6.530606E-03    5.556434E-02
    1.768244E-02    2.857641E-02
    1.713236E-02    6.511714E-03
