 Vespa-Simulation Mixed Metabolite Output
 This file was generated by Vespa-Simulation. You can learn about and download Vespa here:
https://github.com/vespa-mrs/vespa/tree/main/vespa

 
 Output Path/Filename = /home/stud/casperc/bhome/Project1(DeepFit)/DeepFit-data-generation/DeepFitData_TE_20_lw14_2048p
 Output Loop Values = (1,1,1)  ( Loop 1 = 10, Loop 2 = 10, Loop3 Inactive )
 Output Comment
 ---------------------------------------------------------------------------
 
 
 Experiment Information
 ---------------------------------------------------------------------------
 --- Experiment 18b0168e-f5f0-4bd4-8d52-da93aba06c60 ---
 Name: SyntheticDataSetDeepFitTE20
 Public: False
 Created: 2024-10-08T09:55:07
 Comment (abbr.): 
 PI: Casper Cappelen
 b0: 127.740000
 Peak Search PPM low/high: -15.000000 / 15.000000
 Blend tol. PPM/phase: 0.001500 / 50.000000
 Pulse seq.: 43be13ae-de9a-40a1-9a2d-c872d8bjs100 (PRESS Ideal)
 0 User static parameters: 
 22 Metabolites: 2-hydroxyglutarate, GPC-pcholine2, NAAG-truncated, alanine, choline-trimethyl, creatine, ethanolamine, gaba, glucose-beta, glutamate, glutamine, glutathione-glutamate, glutathione-glycine-cysteine, glycine, lactate, myo-inositol, n-acetylaspartate, phosphocreatine, phosphorylcholine-trimethyl, phosphorylethanolamine, pyruvate, taurine
 22 Simulations: (not shown)
 
 Metabolite Formatting Information
 ---------------------------------------------------------------------------
 Name=2-hydroxyglutarate Abbr=2HG Scale=1.0 Shift=0.0 PPM Start=-3.1207465171441986 PPM End=12.528391440425866
 Name=GPC-pcholine2 Abbr=GPC Scale=1.0 Shift=0.0 PPM Start=-3.1207465171441986 PPM End=12.528391440425866
 Name=NAAG-truncated Abbr=NAAG Scale=1.0 Shift=0.0 PPM Start=-3.1207465171441986 PPM End=12.528391440425866
 Name=alanine Abbr=Ala Scale=1.0 Shift=0.0 PPM Start=-3.1207465171441986 PPM End=12.528391440425866
 Name=choline-trimethyl Abbr=Cho Scale=1.0 Shift=0.0 PPM Start=-3.1207465171441986 PPM End=12.528391440425866
 Name=creatine Abbr=Cr Scale=1.0 Shift=0.0 PPM Start=-3.1207465171441986 PPM End=12.528391440425866
 Name=ethanolamine Abbr=ETA Scale=1.0 Shift=0.0 PPM Start=-3.1207465171441986 PPM End=12.528391440425866
 Name=gaba Abbr=GABA Scale=1.0 Shift=0.0 PPM Start=-3.1207465171441986 PPM End=12.528391440425866
 Name=glucose-beta Abbr=Glc Scale=1.0 Shift=0.0 PPM Start=-3.1207465171441986 PPM End=12.528391440425866
 Name=glutamate Abbr=Glu Scale=1.0 Shift=0.0 PPM Start=-3.1207465171441986 PPM End=12.528391440425866
 Name=glutamine Abbr=Gln Scale=1.0 Shift=0.0 PPM Start=-3.1207465171441986 PPM End=12.528391440425866
 Name=glycine Abbr=Gly Scale=1.0 Shift=0.0 PPM Start=-3.1207465171441986 PPM End=12.528391440425866
 Name=lactate Abbr=Lac Scale=1.0 Shift=0.0 PPM Start=-3.1207465171441986 PPM End=12.528391440425866
 Name=myo-inositol Abbr=mI Scale=1.0 Shift=0.0 PPM Start=-3.1207465171441986 PPM End=12.528391440425866
 Name=n-acetylaspartate Abbr=NAA Scale=1.0 Shift=0.0 PPM Start=-3.1207465171441986 PPM End=12.528391440425866
 Name=phosphocreatine Abbr=PCr Scale=1.0 Shift=0.0 PPM Start=-3.1207465171441986 PPM End=12.528391440425866
 Name=phosphorylcholine-trimethyl Abbr=PCho Scale=1.0 Shift=0.0 PPM Start=-3.1207465171441986 PPM End=12.528391440425866
 Name=phosphorylethanolamine Abbr=PE Scale=1.0 Shift=0.0 PPM Start=-3.1207465171441986 PPM End=12.528391440425866
 Name=pyruvate Abbr=Pyr Scale=1.0 Shift=0.0 PPM Start=-3.1207465171441986 PPM End=12.528391440425866
 Name=taurine Abbr=Tau Scale=1.0 Shift=0.0 PPM Start=-3.1207465171441986 PPM End=12.528391440425866
 Name=glutathione-glutamate+glutathione-glycine-cysteine Abbr=GSH Scale=1.0 Shift=0.0 PPM Start=-3.1207565171441987 PPM End=12.528
   Mixture of [metab*scale] = glutathione-glutamate*1.000000 + glutathione-glycine-cysteine*1.000000
 
 ===========================================================================
 This LCModel format RAW file was created using the 
 Vespa-Simulation spectral simulation program using 
 the following settings and parameters 
 
 Sweep Width = 2000.0 Hz 
 Vector Size = 2048 points 
 Apodization = 14.0 Hz Lorentzian broadening
 B0 Field    = 127.74 MHz 
 Ref Singlet = False
  
 This data has been FFTd to be in the FREQUENCY domain
 
 $NMID ID='GSH'
 FMTDAT='(2E16.6)'
 VOLUME=1.0
 TRAMP=1.0
 $END
    1.267274E+01    2.535306E+01
    1.336899E+01    2.579979E+01
    1.415715E+01    2.622882E+01
    1.504835E+01    2.662372E+01
    1.605167E+01    2.696172E+01
    1.717120E+01    2.721297E+01
    1.840179E+01    2.734108E+01
    1.972383E+01    2.730614E+01
    2.109849E+01    2.707212E+01
    2.246730E+01    2.661974E+01
    2.376275E+01    2.596184E+01
    2.493366E+01    2.515023E+01
    2.597653E+01    2.425812E+01
    2.694622E+01    2.333435E+01
    2.792112E+01    2.235630E+01
    2.893382E+01    2.122585E+01
    2.991628E+01    1.982680E+01
    3.070761E+01    1.811297E+01
    3.113173E+01    1.616632E+01
    3.109964E+01    1.417632E+01
    3.066397E+01    1.234546E+01
    2.998335E+01    1.078523E+01
    2.922347E+01    9.475527E+00
    2.846658E+01    8.309569E+00
    2.768713E+01    7.184309E+00
    2.679982E+01    6.071489E+00
    2.573604E+01    5.025553E+00
    2.449127E+01    4.136942E+00
    2.312070E+01    3.477308E+00
    2.170501E+01    3.073295E+00
    2.031839E+01    2.910742E+00
    1.901319E+01    2.952020E+00
    1.781849E+01    3.152120E+00
    1.674516E+01    3.468540E+00
    1.579205E+01    3.865692E+00
    1.495115E+01    4.315993E+00
    1.421134E+01    4.799252E+00
    1.356085E+01    5.301304E+00
    1.298855E+01    5.812471E+00
    1.248448E+01    6.326223E+00
    1.203995E+01    6.838197E+00
    1.164745E+01    7.345527E+00
    1.130047E+01    7.846409E+00
    1.099344E+01    8.339797E+00
    1.072155E+01    8.825194E+00
    1.048065E+01    9.302498E+00
    1.026720E+01    9.771886E+00
    1.007813E+01    1.023373E+01
    9.910820E+00    1.068854E+01
    9.763014E+00    1.113690E+01
    9.632764E+00    1.157946E+01
    9.518393E+00    1.201692E+01
    9.418456E+00    1.244999E+01
    9.331714E+00    1.287938E+01
    9.257101E+00    1.330582E+01
    9.193712E+00    1.373004E+01
    9.140781E+00    1.415275E+01
    9.097669E+00    1.457467E+01
    9.063856E+00    1.499650E+01
    9.038922E+00    1.541890E+01
    9.022528E+00    1.584250E+01
    9.014387E+00    1.626792E+01
    9.014251E+00    1.669575E+01
    9.021905E+00    1.712661E+01
    9.037188E+00    1.756112E+01
    9.059992E+00    1.799994E+01
    9.090252E+00    1.844371E+01
    9.127925E+00    1.889311E+01
    9.173000E+00    1.934887E+01
    9.225523E+00    1.981178E+01
    9.285629E+00    2.028271E+01
    9.353560E+00    2.076253E+01
    9.429664E+00    2.125218E+01
    9.514380E+00    2.175254E+01
    9.608201E+00    2.226450E+01
    9.711648E+00    2.278896E+01
    9.825272E+00    2.332689E+01
    9.949690E+00    2.387936E+01
    1.008564E+01    2.444752E+01
    1.023404E+01    2.503264E+01
    1.039592E+01    2.563595E+01
    1.057249E+01    2.625875E+01
    1.076501E+01    2.690233E+01
    1.097485E+01    2.756811E+01
    1.120349E+01    2.825764E+01
    1.145263E+01    2.897265E+01
    1.172422E+01    2.971504E+01
    1.202051E+01    3.048686E+01
    1.234411E+01    3.129032E+01
    1.269801E+01    3.212781E+01
    1.308567E+01    3.300187E+01
    1.351108E+01    3.391520E+01
    1.397882E+01    3.487071E+01
    1.449424E+01    3.587146E+01
    1.506350E+01    3.692067E+01
    1.569380E+01    3.802173E+01
    1.639355E+01    3.917812E+01
    1.717258E+01    4.039337E+01
    1.804245E+01    4.167094E+01
    1.901676E+01    4.301406E+01
    2.011156E+01    4.442552E+01
    2.134581E+01    4.590728E+01
    2.274187E+01    4.745997E+01
    2.432613E+01    4.908217E+01
    2.612956E+01    5.076935E+01
    2.818820E+01    5.251248E+01
    3.054347E+01    5.429607E+01
    3.324194E+01    5.609577E+01
    3.633432E+01    5.787552E+01
    3.987321E+01    5.958467E+01
    4.390957E+01    6.115597E+01
    4.848870E+01    6.250568E+01
    5.364856E+01    6.353620E+01
    5.942465E+01    6.413840E+01
    6.586338E+01    6.418348E+01
    7.303211E+01    6.348966E+01
    8.099444E+01    6.176198E+01
    8.971598E+01    5.854064E+01
    9.890534E+01    5.322857E+01
    1.078624E+02    4.526028E+01
    1.154594E+02    3.440744E+01
    1.203768E+02    2.110010E+01
    1.215873E+02    6.527647E+00
    1.188421E+02   -7.669210E+00
    1.127983E+02   -2.000139E+01
    1.046812E+02   -2.963171E+01
    9.575152E+01   -3.647601E+01
    8.692521E+01   -4.095889E+01
    7.867675E+01   -4.367173E+01
    7.114836E+01   -4.512862E+01
    6.432241E+01   -4.568030E+01
    5.814830E+01   -4.554386E+01
    5.259077E+01   -4.486737E+01
    4.762668E+01   -4.377411E+01
    4.322969E+01   -4.237653E+01
    3.936248E+01   -4.077427E+01
    3.597777E+01   -3.904979E+01
    3.302309E+01   -3.726690E+01
    3.044562E+01   -3.547222E+01
    2.819551E+01   -3.369813E+01
    2.622771E+01   -3.196601E+01
    2.450259E+01   -3.028916E+01
    2.298591E+01   -2.867508E+01
    2.164836E+01   -2.712726E+01
    2.046506E+01   -2.564648E+01
    1.941493E+01   -2.423172E+01
    1.848009E+01   -2.288083E+01
    1.764543E+01   -2.159093E+01
    1.689812E+01   -2.035880E+01
    1.622723E+01   -1.918102E+01
    1.562348E+01   -1.805414E+01
    1.507891E+01   -1.697475E+01
    1.458670E+01   -1.593958E+01
    1.414098E+01   -1.494549E+01
    1.373670E+01   -1.398949E+01
    1.336948E+01   -1.306878E+01
    1.303550E+01   -1.218072E+01
    1.273146E+01   -1.132284E+01
    1.245447E+01   -1.049281E+01
    1.220200E+01   -9.688456E+00
    1.197182E+01   -8.907738E+00
    1.176198E+01   -8.148727E+00
    1.157076E+01   -7.409602E+00
    1.139665E+01   -6.688628E+00
    1.123834E+01   -5.984147E+00
    1.109469E+01   -5.294562E+00
    1.096477E+01   -4.618340E+00
    1.084783E+01   -3.954026E+00
    1.074331E+01   -3.300279E+00
    1.065082E+01   -2.655925E+00
    1.056999E+01   -2.019973E+00
    1.050046E+01   -1.391576E+00
