 Vespa-Simulation Mixed Metabolite Output
 This file was generated by Vespa-Simulation. You can learn about and download Vespa here:
https://github.com/vespa-mrs/vespa/tree/main/vespa

 
 Output Path/Filename = /home/stud/casperc/bhome/Project1(DeepFit)/DeepFit-data-generation/DeepFitData_TE_20_lw14_2048p
 Output Loop Values = (1,1,1)  ( Loop 1 = 10, Loop 2 = 10, Loop3 Inactive )
 Output Comment
 ---------------------------------------------------------------------------
 
 
 Experiment Information
 ---------------------------------------------------------------------------
 --- Experiment 18b0168e-f5f0-4bd4-8d52-da93aba06c60 ---
 Name: SyntheticDataSetDeepFitTE20
 Public: False
 Created: 2024-10-08T09:55:07
 Comment (abbr.): 
 PI: Casper Cappelen
 b0: 127.740000
 Peak Search PPM low/high: -15.000000 / 15.000000
 Blend tol. PPM/phase: 0.001500 / 50.000000
 Pulse seq.: 43be13ae-de9a-40a1-9a2d-c872d8bjs100 (PRESS Ideal)
 0 User static parameters: 
 22 Metabolites: 2-hydroxyglutarate, GPC-pcholine2, NAAG-truncated, alanine, choline-trimethyl, creatine, ethanolamine, gaba, glucose-beta, glutamate, glutamine, glutathione-glutamate, glutathione-glycine-cysteine, glycine, lactate, myo-inositol, n-acetylaspartate, phosphocreatine, phosphorylcholine-trimethyl, phosphorylethanolamine, pyruvate, taurine
 22 Simulations: (not shown)
 
 Metabolite Formatting Information
 ---------------------------------------------------------------------------
 Name=2-hydroxyglutarate Abbr=2HG Scale=1.0 Shift=0.0 PPM Start=-3.1207465171441986 PPM End=12.528391440425866
 Name=GPC-pcholine2 Abbr=GPC Scale=1.0 Shift=0.0 PPM Start=-3.1207465171441986 PPM End=12.528391440425866
 Name=NAAG-truncated Abbr=NAAG Scale=1.0 Shift=0.0 PPM Start=-3.1207465171441986 PPM End=12.528391440425866
 Name=alanine Abbr=Ala Scale=1.0 Shift=0.0 PPM Start=-3.1207465171441986 PPM End=12.528391440425866
 Name=choline-trimethyl Abbr=Cho Scale=1.0 Shift=0.0 PPM Start=-3.1207465171441986 PPM End=12.528391440425866
 Name=creatine Abbr=Cr Scale=1.0 Shift=0.0 PPM Start=-3.1207465171441986 PPM End=12.528391440425866
 Name=ethanolamine Abbr=ETA Scale=1.0 Shift=0.0 PPM Start=-3.1207465171441986 PPM End=12.528391440425866
 Name=gaba Abbr=GABA Scale=1.0 Shift=0.0 PPM Start=-3.1207465171441986 PPM End=12.528391440425866
 Name=glucose-beta Abbr=Glc Scale=1.0 Shift=0.0 PPM Start=-3.1207465171441986 PPM End=12.528391440425866
 Name=glutamate Abbr=Glu Scale=1.0 Shift=0.0 PPM Start=-3.1207465171441986 PPM End=12.528391440425866
 Name=glutamine Abbr=Gln Scale=1.0 Shift=0.0 PPM Start=-3.1207465171441986 PPM End=12.528391440425866
 Name=glycine Abbr=Gly Scale=1.0 Shift=0.0 PPM Start=-3.1207465171441986 PPM End=12.528391440425866
 Name=lactate Abbr=Lac Scale=1.0 Shift=0.0 PPM Start=-3.1207465171441986 PPM End=12.528391440425866
 Name=myo-inositol Abbr=mI Scale=1.0 Shift=0.0 PPM Start=-3.1207465171441986 PPM End=12.528391440425866
 Name=n-acetylaspartate Abbr=NAA Scale=1.0 Shift=0.0 PPM Start=-3.1207465171441986 PPM End=12.528391440425866
 Name=phosphocreatine Abbr=PCr Scale=1.0 Shift=0.0 PPM Start=-3.1207465171441986 PPM End=12.528391440425866
 Name=phosphorylcholine-trimethyl Abbr=PCho Scale=1.0 Shift=0.0 PPM Start=-3.1207465171441986 PPM End=12.528391440425866
 Name=phosphorylethanolamine Abbr=PE Scale=1.0 Shift=0.0 PPM Start=-3.1207465171441986 PPM End=12.528391440425866
 Name=pyruvate Abbr=Pyr Scale=1.0 Shift=0.0 PPM Start=-3.1207465171441986 PPM End=12.528391440425866
 Name=taurine Abbr=Tau Scale=1.0 Shift=0.0 PPM Start=-3.1207465171441986 PPM End=12.528391440425866
 Name=glutathione-glutamate+glutathione-glycine-cysteine Abbr=GSH Scale=1.0 Shift=0.0 PPM Start=-3.1207565171441987 PPM End=12.528
   Mixture of [metab*scale] = glutathione-glutamate*1.000000 + glutathione-glycine-cysteine*1.000000
 
 ===========================================================================
 This LCModel format RAW file was created using the 
 Vespa-Simulation spectral simulation program using 
 the following settings and parameters 
 
 Sweep Width = 2000.0 Hz 
 Vector Size = 2048 points 
 Apodization = 14.0 Hz Lorentzian broadening
 B0 Field    = 127.74 MHz 
 Ref Singlet = False
  
 $NMID ID='Lac'
 FMTDAT='(2E16.6)'
 VOLUME=1.0
 TRAMP=1.0
 $END
    3.370464E+00   -3.871640E-03
    1.217127E+00    2.717126E+00
   -1.734137E+00    1.379890E+00
   -1.030716E+00   -1.539133E+00
    1.884682E+00   -1.309835E+00
    2.223562E+00    1.654653E+00
   -5.954901E-01    2.710627E+00
   -2.271489E+00    3.500058E-01
   -4.844952E-01   -1.652692E+00
    1.661776E+00   -3.237426E-01
    7.161809E-01    1.996569E+00
   -1.796530E+00    1.554293E+00
   -1.993814E+00   -9.660968E-01
    2.726372E-01   -1.733813E+00
    1.400271E+00    1.799900E-01
   -2.261699E-01    1.551932E+00
   -1.877392E+00    1.972341E-01
   -9.245232E-01   -1.734926E+00
    1.127952E+00   -1.307218E+00
    1.183946E+00    6.570474E-01
   -6.116363E-01    1.057127E+00
   -1.294116E+00   -6.002529E-01
    2.040887E-01   -1.605015E+00
    1.528069E+00   -3.933880E-01
    7.122506E-01    1.120729E+00
   -8.342584E-01    6.830470E-01
   -6.918232E-01   -8.341528E-01
    8.049868E-01   -9.653470E-01
    1.253353E+00    4.715717E-01
   -8.199590E-03    1.236333E+00
   -9.936715E-01    2.440166E-01
   -2.709503E-01   -8.499249E-01
    8.876791E-01   -3.560854E-01
    6.282576E-01    8.649156E-01
   -6.103699E-01    8.848834E-01
   -9.143497E-01   -2.735305E-01
    8.607246E-02   -7.969951E-01
    7.550899E-01    3.328258E-02
    8.302823E-02    8.199585E-01
   -8.150814E-01    3.276367E-01
   -5.463754E-01   -6.405466E-01
    4.142406E-01   -6.058361E-01
    5.753290E-01    2.854245E-01
   -2.283026E-01    5.986086E-01
   -6.787725E-01   -1.119095E-01
   -9.007200E-02   -6.939790E-01
    5.904332E-01   -2.675226E-01
    3.410650E-01    4.538003E-01
   -3.743770E-01    3.636156E-01
   -4.218688E-01   -3.260412E-01
    2.279347E-01   -5.062644E-01
    5.379228E-01    7.414667E-02
    6.208278E-02    4.906222E-01
   -4.212700E-01    1.366168E-01
   -1.853069E-01   -3.802695E-01
    3.467466E-01   -2.557826E-01
    3.354394E-01    2.749352E-01
   -1.676408E-01    3.770903E-01
   -3.693677E-01   -6.941346E-02
    3.008248E-03   -3.459835E-01
    3.321676E-01   -5.252188E-02
    1.199397E-01    3.141756E-01
   -2.691416E-01    1.886832E-01
   -2.333730E-01   -2.017763E-01
    1.360213E-01   -2.494697E-01
    2.537040E-01    8.271564E-02
   -3.239139E-02    2.567675E-01
   -2.516527E-01    2.338271E-02
   -7.797154E-02   -2.291594E-01
    1.926048E-01   -1.198472E-01
    1.467437E-01    1.524287E-01
   -1.136232E-01    1.642473E-01
   -1.756747E-01   -7.437068E-02
    3.345486E-02   -1.791757E-01
    1.727191E-01   -6.400863E-03
    4.150512E-02    1.572879E-01
   -1.354601E-01    6.980670E-02
   -9.056554E-02   -1.098433E-01
    8.292045E-02   -1.040717E-01
    1.117181E-01    5.623858E-02
   -2.964206E-02    1.144799E-01
   -1.113511E-01   -3.102960E-03
   -2.092017E-02   -1.011589E-01
    8.579753E-02   -3.896627E-02
    5.058895E-02    6.944603E-02
   -5.406805E-02    5.865172E-02
   -6.480646E-02   -3.795466E-02
    1.986842E-02   -6.695715E-02
    6.280810E-02    2.518842E-03
    1.019637E-02    5.413717E-02
   -4.510599E-02    1.805194E-02
   -2.405816E-02   -3.714204E-02
    2.815227E-02   -2.949913E-02
    3.209964E-02    1.700738E-02
   -6.243734E-03    2.986529E-02
   -2.448499E-02    9.893017E-04
   -4.835896E-03   -1.923396E-02
    1.487942E-02   -7.687093E-03
    1.022224E-02    9.723465E-03
   -3.210027E-03    1.062055E-02
   -7.702901E-03    2.624604E-03
   -5.730734E-03   -2.925214E-03
   -1.529748E-03   -6.432523E-03
    6.253122E-03   -5.307310E-03
    9.384928E-03    5.418580E-03
   -2.808051E-03    1.377491E-02
   -1.703846E-02    2.002345E-03
   -7.883238E-03   -1.802293E-02
    1.701030E-02   -1.350021E-02
    1.861238E-02    1.480570E-02
   -1.144032E-02    2.356311E-02
   -2.805907E-02   -6.355695E-03
   -4.613460E-04   -3.108708E-02
    3.192482E-02   -8.135136E-03
    1.570820E-02    3.072790E-02
   -2.798123E-02    2.289255E-02
   -2.978107E-02   -2.369008E-02
    1.744021E-02   -3.601675E-02
    4.062025E-02    9.234239E-03
    4.636818E-05    4.279793E-02
   -4.269974E-02    9.321788E-03
   -1.831205E-02   -4.097723E-02
    3.760843E-02   -2.738553E-02
    3.625242E-02    3.175110E-02
   -2.313580E-02    4.344953E-02
   -4.773201E-02   -1.305048E-02
    3.100768E-03   -4.956111E-02
    5.019904E-02   -6.723795E-03
    1.759702E-02    4.940004E-02
   -4.531709E-02    2.925282E-02
   -3.920538E-02   -3.731824E-02
    2.755571E-02   -4.560232E-02
    4.965836E-02    1.837190E-02
   -9.037413E-03    5.355350E-02
   -5.647056E-02    2.849681E-03
   -1.682746E-02   -5.509393E-02
    4.853885E-02   -2.895379E-02
    3.683858E-02    4.026922E-02
   -3.335750E-02    4.293153E-02
   -5.044991E-02   -2.585466E-02
    1.389685E-02   -5.757450E-02
    5.924203E-02   -1.520712E-03
    1.470344E-02    5.462099E-02
   -4.884025E-02    2.300998E-02
   -3.057956E-02   -4.547568E-02
    4.089334E-02   -4.156744E-02
    5.272150E-02    2.975410E-02
   -1.399055E-02    5.718401E-02
   -5.460442E-02   -1.140143E-03
   -6.348102E-03   -5.197290E-02
    5.300313E-02   -1.460816E-02
    2.848563E-02    5.199966E-02
   -4.235909E-02    4.291751E-02
   -4.943863E-02   -2.734895E-02
    1.623242E-02   -4.865673E-02
    4.944209E-02    1.075116E-02
   -2.628373E-03    5.517627E-02
   -5.790865E-02    1.325653E-02
   -2.980976E-02   -5.015063E-02
    3.683399E-02   -3.733536E-02
    3.784404E-02    2.864836E-02
   -2.611708E-02    4.192612E-02
   -5.213990E-02   -1.886975E-02
    1.984955E-03   -5.827056E-02
    5.245776E-02   -1.532807E-02
    2.266518E-02    4.151573E-02
   -3.710010E-02    2.381434E-02
   -3.074885E-02   -3.809043E-02
    3.225936E-02   -4.475778E-02
    5.354961E-02    1.537509E-02
    1.331259E-03    4.946012E-02
   -4.125240E-02    7.349523E-03
   -8.456773E-03   -4.101657E-02
    4.567513E-02   -1.757715E-02
