 Vespa-Simulation Mixed Metabolite Output
 This file was generated by Vespa-Simulation. You can learn about and download Vespa here:
https://github.com/vespa-mrs/vespa/tree/main/vespa

 
 Output Path/Filename = /home/stud/casperc/bhome/Project1(DeepFit)/DeepFit-data-generation/DeepFitData_TE_20_lw14_2048p
 Output Loop Values = (1,1,1)  ( Loop 1 = 10, Loop 2 = 10, Loop3 Inactive )
 Output Comment
 ---------------------------------------------------------------------------
 
 
 Experiment Information
 ---------------------------------------------------------------------------
 --- Experiment 18b0168e-f5f0-4bd4-8d52-da93aba06c60 ---
 Name: SyntheticDataSetDeepFitTE20
 Public: False
 Created: 2024-10-08T09:55:07
 Comment (abbr.): 
 PI: Casper Cappelen
 b0: 127.740000
 Peak Search PPM low/high: -15.000000 / 15.000000
 Blend tol. PPM/phase: 0.001500 / 50.000000
 Pulse seq.: 43be13ae-de9a-40a1-9a2d-c872d8bjs100 (PRESS Ideal)
 0 User static parameters: 
 22 Metabolites: 2-hydroxyglutarate, GPC-pcholine2, NAAG-truncated, alanine, choline-trimethyl, creatine, ethanolamine, gaba, glucose-beta, glutamate, glutamine, glutathione-glutamate, glutathione-glycine-cysteine, glycine, lactate, myo-inositol, n-acetylaspartate, phosphocreatine, phosphorylcholine-trimethyl, phosphorylethanolamine, pyruvate, taurine
 22 Simulations: (not shown)
 
 Metabolite Formatting Information
 ---------------------------------------------------------------------------
 Name=2-hydroxyglutarate Abbr=2HG Scale=1.0 Shift=0.0 PPM Start=-3.1207465171441986 PPM End=12.528391440425866
 Name=GPC-pcholine2 Abbr=GPC Scale=1.0 Shift=0.0 PPM Start=-3.1207465171441986 PPM End=12.528391440425866
 Name=NAAG-truncated Abbr=NAAG Scale=1.0 Shift=0.0 PPM Start=-3.1207465171441986 PPM End=12.528391440425866
 Name=alanine Abbr=Ala Scale=1.0 Shift=0.0 PPM Start=-3.1207465171441986 PPM End=12.528391440425866
 Name=choline-trimethyl Abbr=Cho Scale=1.0 Shift=0.0 PPM Start=-3.1207465171441986 PPM End=12.528391440425866
 Name=creatine Abbr=Cr Scale=1.0 Shift=0.0 PPM Start=-3.1207465171441986 PPM End=12.528391440425866
 Name=ethanolamine Abbr=ETA Scale=1.0 Shift=0.0 PPM Start=-3.1207465171441986 PPM End=12.528391440425866
 Name=gaba Abbr=GABA Scale=1.0 Shift=0.0 PPM Start=-3.1207465171441986 PPM End=12.528391440425866
 Name=glucose-beta Abbr=Glc Scale=1.0 Shift=0.0 PPM Start=-3.1207465171441986 PPM End=12.528391440425866
 Name=glutamate Abbr=Glu Scale=1.0 Shift=0.0 PPM Start=-3.1207465171441986 PPM End=12.528391440425866
 Name=glutamine Abbr=Gln Scale=1.0 Shift=0.0 PPM Start=-3.1207465171441986 PPM End=12.528391440425866
 Name=glycine Abbr=Gly Scale=1.0 Shift=0.0 PPM Start=-3.1207465171441986 PPM End=12.528391440425866
 Name=lactate Abbr=Lac Scale=1.0 Shift=0.0 PPM Start=-3.1207465171441986 PPM End=12.528391440425866
 Name=myo-inositol Abbr=mI Scale=1.0 Shift=0.0 PPM Start=-3.1207465171441986 PPM End=12.528391440425866
 Name=n-acetylaspartate Abbr=NAA Scale=1.0 Shift=0.0 PPM Start=-3.1207465171441986 PPM End=12.528391440425866
 Name=phosphocreatine Abbr=PCr Scale=1.0 Shift=0.0 PPM Start=-3.1207465171441986 PPM End=12.528391440425866
 Name=phosphorylcholine-trimethyl Abbr=PCho Scale=1.0 Shift=0.0 PPM Start=-3.1207465171441986 PPM End=12.528391440425866
 Name=phosphorylethanolamine Abbr=PE Scale=1.0 Shift=0.0 PPM Start=-3.1207465171441986 PPM End=12.528391440425866
 Name=pyruvate Abbr=Pyr Scale=1.0 Shift=0.0 PPM Start=-3.1207465171441986 PPM End=12.528391440425866
 Name=taurine Abbr=Tau Scale=1.0 Shift=0.0 PPM Start=-3.1207465171441986 PPM End=12.528391440425866
 Name=glutathione-glutamate+glutathione-glycine-cysteine Abbr=GSH Scale=1.0 Shift=0.0 PPM Start=-3.1207565171441987 PPM End=12.528
   Mixture of [metab*scale] = glutathione-glutamate*1.000000 + glutathione-glycine-cysteine*1.000000
 
 ===========================================================================
 This LCModel format RAW file was created using the 
 Vespa-Simulation spectral simulation program using 
 the following settings and parameters 
 
 Sweep Width = 2000.0 Hz 
 Vector Size = 2048 points 
 Apodization = 14.0 Hz Lorentzian broadening
 B0 Field    = 127.74 MHz 
 Ref Singlet = False
  
 This data has been FFTd to be in the FREQUENCY domain
 
 $NMID ID='Lac'
 FMTDAT='(2E16.6)'
 VOLUME=1.0
 TRAMP=1.0
 $END
    2.131807E+00    4.475887E+00
    2.142962E+00    4.516405E+00
    2.154559E+00    4.557803E+00
    2.166622E+00    4.600112E+00
    2.179175E+00    4.643364E+00
    2.192245E+00    4.687594E+00
    2.205861E+00    4.732839E+00
    2.220054E+00    4.779135E+00
    2.234856E+00    4.826522E+00
    2.250303E+00    4.875041E+00
    2.266433E+00    4.924737E+00
    2.283287E+00    4.975652E+00
    2.300908E+00    5.027836E+00
    2.319344E+00    5.081337E+00
    2.338643E+00    5.136208E+00
    2.358862E+00    5.192504E+00
    2.380058E+00    5.250283E+00
    2.402294E+00    5.309605E+00
    2.425640E+00    5.370534E+00
    2.450168E+00    5.433136E+00
    2.475960E+00    5.497483E+00
    2.503101E+00    5.563649E+00
    2.531688E+00    5.631712E+00
    2.561824E+00    5.701754E+00
    2.593620E+00    5.773860E+00
    2.627200E+00    5.848121E+00
    2.662698E+00    5.924631E+00
    2.700261E+00    6.003489E+00
    2.740048E+00    6.084800E+00
    2.782238E+00    6.168672E+00
    2.827025E+00    6.255217E+00
    2.874621E+00    6.344553E+00
    2.925261E+00    6.436802E+00
    2.979206E+00    6.532089E+00
    3.036743E+00    6.630547E+00
    3.098189E+00    6.732307E+00
    3.163900E+00    6.837507E+00
    3.234269E+00    6.946282E+00
    3.309736E+00    7.058767E+00
    3.390788E+00    7.175094E+00
    3.477974E+00    7.295388E+00
    3.571906E+00    7.419763E+00
    3.673270E+00    7.548317E+00
    3.782841E+00    7.681123E+00
    3.901484E+00    7.818221E+00
    4.030179E+00    7.959602E+00
    4.170023E+00    8.105194E+00
    4.322253E+00    8.254840E+00
    4.488261E+00    8.408268E+00
    4.669609E+00    8.565057E+00
    4.868045E+00    8.724583E+00
    5.085514E+00    8.885960E+00
    5.324162E+00    9.047955E+00
    5.586324E+00    9.208880E+00
    5.874489E+00    9.366464E+00
    6.191218E+00    9.517682E+00
    6.538998E+00    9.658560E+00
    6.919988E+00    9.783953E+00
    7.335606E+00    9.887338E+00
    7.785877E+00    9.960679E+00
    8.268503E+00    9.994538E+00
    8.777623E+00    9.978671E+00
    9.302449E+00    9.903558E+00
    9.826385E+00    9.763347E+00
    1.032797E+01    9.560431E+00
    1.078573E+01    9.310603E+00
    1.118862E+01    9.045169E+00
    1.154992E+01    8.803797E+00
    1.191506E+01    8.614027E+00
    1.235032E+01    8.464303E+00
    1.290901E+01    8.289951E+00
    1.359128E+01    7.989006E+00
    1.432232E+01    7.466082E+00
    1.496516E+01    6.686038E+00
    1.537108E+01    5.712751E+00
    1.545414E+01    4.705610E+00
    1.525228E+01    3.857561E+00
    1.492706E+01    3.297735E+00
    1.469005E+01    3.019181E+00
    1.469924E+01    2.878475E+00
    1.498346E+01    2.663092E+00
    1.542747E+01    2.189853E+00
    1.582344E+01    1.392021E+00
    1.597031E+01    3.525392E-01
    1.577081E+01   -7.412026E-01
    1.526684E+01   -1.695509E+00
    1.459823E+01   -2.397172E+00
    1.392393E+01   -2.843461E+00
    1.335426E+01   -3.116809E+00
    1.291950E+01   -3.330615E+00
    1.257887E+01   -3.574269E+00
    1.225901E+01   -3.881497E+00
    1.189736E+01   -4.233485E+00
    1.146568E+01   -4.585899E+00
    1.096840E+01   -4.896625E+00
    1.042802E+01   -5.139814E+00
    9.870910E+00   -5.306801E+00
    9.319370E+00   -5.400902E+00
    8.789041E+00   -5.431628E+00
    8.289325E+00   -5.410529E+00
    7.824843E+00   -5.348843E+00
    7.396958E+00   -5.256433E+00
    7.004999E+00   -5.141471E+00
    6.647128E+00   -5.010498E+00
    6.320920E+00   -4.868628E+00
    6.023726E+00   -4.719804E+00
    5.752891E+00   -4.567022E+00
    5.505874E+00   -4.412544E+00
    5.280311E+00   -4.258055E+00
    5.074043E+00   -4.104802E+00
    4.885114E+00   -3.953691E+00
    4.711773E+00   -3.805370E+00
    4.552452E+00   -3.660286E+00
    4.405756E+00   -3.518738E+00
    4.270446E+00   -3.380907E+00
    4.145420E+00   -3.246894E+00
    4.029700E+00   -3.116732E+00
    3.922413E+00   -2.990410E+00
    3.822781E+00   -2.867880E+00
    3.730110E+00   -2.749066E+00
    3.643780E+00   -2.633874E+00
    3.563237E+00   -2.522198E+00
    3.487985E+00   -2.413923E+00
    3.417581E+00   -2.308930E+00
    3.351624E+00   -2.207098E+00
    3.289755E+00   -2.108306E+00
    3.231648E+00   -2.012434E+00
    3.177009E+00   -1.919364E+00
    3.125571E+00   -1.828979E+00
    3.077094E+00   -1.741167E+00
    3.031358E+00   -1.655820E+00
    2.988164E+00   -1.572832E+00
    2.947330E+00   -1.492102E+00
    2.908692E+00   -1.413535E+00
    2.872098E+00   -1.337039E+00
    2.837407E+00   -1.262525E+00
    2.804493E+00   -1.189908E+00
    2.773237E+00   -1.119109E+00
    2.743532E+00   -1.050048E+00
    2.715278E+00   -9.826506E-01
    2.688386E+00   -9.168453E-01
    2.662772E+00   -8.525648E-01
    2.638361E+00   -7.897458E-01
    2.615082E+00   -7.283287E-01
    2.592867E+00   -6.682565E-01
    2.571653E+00   -6.094743E-01
    2.551384E+00   -5.519289E-01
    2.532007E+00   -4.955690E-01
    2.513471E+00   -4.403463E-01
    2.495734E+00   -3.862156E-01
    2.478754E+00   -3.331353E-01
    2.462488E+00   -2.810664E-01
    2.446897E+00   -2.299708E-01
    2.431941E+00   -1.798096E-01
    2.417584E+00   -1.305426E-01
    2.403795E+00   -8.212891E-02
    2.390548E+00   -3.452937E-02
    2.377824E+00    1.229069E-02
    2.365605E+00    5.835974E-02
    2.353873E+00    1.037008E-01
    2.342604E+00    1.483343E-01
    2.331774E+00    1.922812E-01
    2.321357E+00    2.355649E-01
    2.311330E+00    2.782109E-01
    2.301669E+00    3.202463E-01
    2.292356E+00    3.616986E-01
    2.283376E+00    4.025951E-01
    2.274715E+00    4.429620E-01
    2.266366E+00    4.828230E-01
    2.258320E+00    5.221987E-01
    2.250573E+00    5.611050E-01
    2.243116E+00    5.995539E-01
