 Vespa-Simulation Mixed Metabolite Output
 This file was generated by Vespa-Simulation. You can learn about and download Vespa here:
https://github.com/vespa-mrs/vespa/tree/main/vespa

 
 Output Path/Filename = /home/stud/casperc/bhome/Project1(DeepFit)/DeepFit-data-generation/DeepFitData_TE_20_lw14_2048p
 Output Loop Values = (1,1,1)  ( Loop 1 = 10, Loop 2 = 10, Loop3 Inactive )
 Output Comment
 ---------------------------------------------------------------------------
 
 
 Experiment Information
 ---------------------------------------------------------------------------
 --- Experiment 18b0168e-f5f0-4bd4-8d52-da93aba06c60 ---
 Name: SyntheticDataSetDeepFitTE20
 Public: False
 Created: 2024-10-08T09:55:07
 Comment (abbr.): 
 PI: Casper Cappelen
 b0: 127.740000
 Peak Search PPM low/high: -15.000000 / 15.000000
 Blend tol. PPM/phase: 0.001500 / 50.000000
 Pulse seq.: 43be13ae-de9a-40a1-9a2d-c872d8bjs100 (PRESS Ideal)
 0 User static parameters: 
 22 Metabolites: 2-hydroxyglutarate, GPC-pcholine2, NAAG-truncated, alanine, choline-trimethyl, creatine, ethanolamine, gaba, glucose-beta, glutamate, glutamine, glutathione-glutamate, glutathione-glycine-cysteine, glycine, lactate, myo-inositol, n-acetylaspartate, phosphocreatine, phosphorylcholine-trimethyl, phosphorylethanolamine, pyruvate, taurine
 22 Simulations: (not shown)
 
 Metabolite Formatting Information
 ---------------------------------------------------------------------------
 Name=2-hydroxyglutarate Abbr=2HG Scale=1.0 Shift=0.0 PPM Start=-3.1207465171441986 PPM End=12.528391440425866
 Name=GPC-pcholine2 Abbr=GPC Scale=1.0 Shift=0.0 PPM Start=-3.1207465171441986 PPM End=12.528391440425866
 Name=NAAG-truncated Abbr=NAAG Scale=1.0 Shift=0.0 PPM Start=-3.1207465171441986 PPM End=12.528391440425866
 Name=alanine Abbr=Ala Scale=1.0 Shift=0.0 PPM Start=-3.1207465171441986 PPM End=12.528391440425866
 Name=choline-trimethyl Abbr=Cho Scale=1.0 Shift=0.0 PPM Start=-3.1207465171441986 PPM End=12.528391440425866
 Name=creatine Abbr=Cr Scale=1.0 Shift=0.0 PPM Start=-3.1207465171441986 PPM End=12.528391440425866
 Name=ethanolamine Abbr=ETA Scale=1.0 Shift=0.0 PPM Start=-3.1207465171441986 PPM End=12.528391440425866
 Name=gaba Abbr=GABA Scale=1.0 Shift=0.0 PPM Start=-3.1207465171441986 PPM End=12.528391440425866
 Name=glucose-beta Abbr=Glc Scale=1.0 Shift=0.0 PPM Start=-3.1207465171441986 PPM End=12.528391440425866
 Name=glutamate Abbr=Glu Scale=1.0 Shift=0.0 PPM Start=-3.1207465171441986 PPM End=12.528391440425866
 Name=glutamine Abbr=Gln Scale=1.0 Shift=0.0 PPM Start=-3.1207465171441986 PPM End=12.528391440425866
 Name=glycine Abbr=Gly Scale=1.0 Shift=0.0 PPM Start=-3.1207465171441986 PPM End=12.528391440425866
 Name=lactate Abbr=Lac Scale=1.0 Shift=0.0 PPM Start=-3.1207465171441986 PPM End=12.528391440425866
 Name=myo-inositol Abbr=mI Scale=1.0 Shift=0.0 PPM Start=-3.1207465171441986 PPM End=12.528391440425866
 Name=n-acetylaspartate Abbr=NAA Scale=1.0 Shift=0.0 PPM Start=-3.1207465171441986 PPM End=12.528391440425866
 Name=phosphocreatine Abbr=PCr Scale=1.0 Shift=0.0 PPM Start=-3.1207465171441986 PPM End=12.528391440425866
 Name=phosphorylcholine-trimethyl Abbr=PCho Scale=1.0 Shift=0.0 PPM Start=-3.1207465171441986 PPM End=12.528391440425866
 Name=phosphorylethanolamine Abbr=PE Scale=1.0 Shift=0.0 PPM Start=-3.1207465171441986 PPM End=12.528391440425866
 Name=pyruvate Abbr=Pyr Scale=1.0 Shift=0.0 PPM Start=-3.1207465171441986 PPM End=12.528391440425866
 Name=taurine Abbr=Tau Scale=1.0 Shift=0.0 PPM Start=-3.1207465171441986 PPM End=12.528391440425866
 Name=glutathione-glutamate+glutathione-glycine-cysteine Abbr=GSH Scale=1.0 Shift=0.0 PPM Start=-3.1207565171441987 PPM End=12.528
   Mixture of [metab*scale] = glutathione-glutamate*1.000000 + glutathione-glycine-cysteine*1.000000
 
 ===========================================================================
 This LCModel format RAW file was created using the 
 Vespa-Simulation spectral simulation program using 
 the following settings and parameters 
 
 Sweep Width = 2000.0 Hz 
 Vector Size = 2048 points 
 Apodization = 14.0 Hz Lorentzian broadening
 B0 Field    = 127.74 MHz 
 Ref Singlet = False
  
 $NMID ID='mI'
 FMTDAT='(2E16.6)'
 VOLUME=1.0
 TRAMP=1.0
 $END
    5.880550E+00    4.496265E-03
    5.187669E+00    2.455609E+00
    3.519333E+00    4.294160E+00
    1.280880E+00    5.166904E+00
   -1.018279E+00    4.955684E+00
   -2.889227E+00    3.791228E+00
   -3.975658E+00    2.006053E+00
   -4.126284E+00    4.213339E-02
   -3.412549E+00   -1.660577E+00
   -2.091535E+00   -2.765599E+00
   -5.280011E-01   -3.107282E+00
    9.012439E-01   -2.710622E+00
    1.895516E+00   -1.763786E+00
    2.290155E+00   -5.552064E-01
    2.076999E+00    6.051415E-01
    1.385551E+00    1.459154E+00
    4.347249E-01    1.851787E+00
   -5.288301E-01    1.750917E+00
   -1.289215E+00    1.236224E+00
   -1.703249E+00    4.647363E-01
   -1.719075E+00   -3.745811E-01
   -1.371808E+00   -1.104793E+00
   -7.618582E-01   -1.593861E+00
   -2.466240E-02   -1.771724E+00
    6.996480E-01   -1.631824E+00
    1.290431E+00   -1.220967E+00
    1.661755E+00   -6.229007E-01
    1.768921E+00    5.946784E-02
    1.608389E+00    7.200448E-01
    1.213648E+00    1.262567E+00
    6.486844E-01    1.610975E+00
   -2.862985E-04    1.717612E+00
   -6.352576E-01    1.569497E+00
   -1.159166E+00    1.191580E+00
   -1.490559E+00    6.453309E-01
   -1.577859E+00    2.137688E-02
   -1.410603E+00   -5.744552E-01
   -1.023938E+00   -1.039805E+00
   -4.942987E-01   -1.295887E+00
    7.441314E-02   -1.304543E+00
    5.716144E-01   -1.077370E+00
    9.037720E-01   -6.741592E-01
    1.014952E+00   -1.901135E-01
    8.992991E-01    2.656831E-01
    6.016844E-01    5.952590E-01
    2.062297E-01    7.343423E-01
   -1.845540E-01    6.664985E-01
   -4.748885E-01    4.255099E-01
   -5.985506E-01    8.531344E-02
   -5.337903E-01   -2.595888E-01
   -3.067580E-01   -5.182137E-01
    1.706603E-02   -6.252594E-01
    3.508387E-01   -5.560183E-01
    6.086474E-01   -3.304865E-01
    7.264992E-01   -6.242948E-03
    6.766550E-01    3.374179E-01
    4.723073E-01    6.197678E-01
    1.620618E-01    7.778123E-01
   -1.837141E-01    7.799606E-01
   -4.906101E-01    6.311137E-01
   -6.973591E-01    3.688409E-01
   -7.685316E-01    5.225833E-02
   -7.000021E-01   -2.528835E-01
   -5.168273E-01   -4.892019E-01
   -2.648106E-01   -6.190477E-01
    1.520590E-03   -6.302807E-01
    2.314342E-01   -5.357189E-01
    3.879018E-01   -3.672668E-01
    4.533758E-01   -1.668165E-01
    4.305692E-01    2.365504E-02
    3.389274E-01    1.705796E-01
    2.082104E-01    2.541575E-01
    7.102674E-02    2.702027E-01
   -4.406010E-02    2.285547E-01
   -1.174689E-01    1.489899E-01
   -1.411078E-01    5.590165E-02
   -1.183090E-01   -2.709422E-02
   -6.166941E-02   -8.164286E-02
    1.049726E-02   -9.754417E-02
    7.829665E-02   -7.387703E-02
    1.242387E-01   -1.835258E-02
    1.364569E-01    5.480508E-02
    1.107048E-01    1.279519E-01
    5.092129E-02    1.835967E-01
   -3.173011E-02    2.078302E-01
   -1.210879E-01    1.930203E-01
   -1.991854E-01    1.393462E-01
   -2.497857E-01    5.484193E-02
   -2.616328E-01   -4.611385E-02
   -2.307423E-01   -1.455218E-01
   -1.613023E-01   -2.253053E-01
   -6.492662E-02   -2.708838E-01
    4.163581E-02   -2.740844E-01
    1.397834E-01   -2.347264E-01
    2.127727E-01   -1.606005E-01
    2.490026E-01   -6.576634E-02
    2.441407E-01    3.236027E-02
    2.017483E-01    1.165834E-01
    1.322330E-01    1.733180E-01
    5.040968E-02    1.951218E-01
   -2.769755E-02    1.817965E-01
   -8.817192E-02    1.399691E-01
   -1.218696E-01    8.125765E-02
   -1.259345E-01    1.950036E-02
   -1.038699E-01   -3.226493E-02
   -6.429802E-02   -6.446763E-02
   -1.870701E-02   -7.274599E-02
    2.122838E-02   -5.844445E-02
    4.618697E-02   -2.788710E-02
    5.105914E-02    9.366412E-03
    3.578529E-02    4.284176E-02
    5.065479E-03    6.350430E-02
   -3.292236E-02    6.568342E-02
   -6.847423E-02    4.817497E-02
   -9.254620E-02    1.433906E-02
   -9.869051E-02   -2.875335E-02
   -8.439143E-02   -7.192676E-02
   -5.152011E-02   -1.058967E-01
   -5.883534E-03   -1.232024E-01
    4.403302E-02   -1.197354E-01
    8.882992E-02   -9.553250E-02
    1.201111E-01   -5.470083E-02
    1.321232E-01   -4.541923E-03
    1.228495E-01    4.595722E-02
    9.431530E-02    8.791769E-02
    5.207195E-02    1.143000E-01
    4.019235E-03    1.211861E-01
   -4.120958E-02    1.084260E-01
   -7.593499E-02    7.950139E-02
   -9.485622E-02    4.068877E-02
   -9.595401E-02   -3.094539E-04
   -8.067692E-02   -3.589955E-02
   -5.347064E-02   -6.007105E-02
   -2.072936E-02   -6.946037E-02
    1.057046E-02   -6.384157E-02
    3.427310E-02   -4.597744E-02
    4.620935E-02   -2.089638E-02
    4.491461E-02    5.231498E-03
    3.178509E-02    2.639808E-02
    1.066912E-02    3.794788E-02
   -1.299956E-02    3.748711E-02
   -3.335677E-02    2.531318E-02
   -4.532358E-02    4.312197E-03
   -4.565645E-02   -2.065106E-02
   -3.363793E-02   -4.373312E-02
   -1.126171E-02   -5.932816E-02
    1.710560E-02   -6.324054E-02
    4.557073E-02   -5.362968E-02
    6.789952E-02   -3.149425E-02
    7.882745E-02   -5.902611E-04
    7.523067E-02    3.323551E-02
    5.690586E-02    6.318898E-02
    2.674840E-02    8.295391E-02
   -9.706605E-03    8.805492E-02
   -4.537100E-02    7.692461E-02
   -7.307734E-02    5.135994E-02
   -8.713994E-02    1.625236E-02
   -8.464701E-02   -2.138942E-02
   -6.617097E-02   -5.393183E-02
   -3.570974E-02   -7.479506E-02
    1.789650E-04   -7.994197E-02
    3.381474E-02   -6.878209E-02
    5.814345E-02   -4.431409E-02
    6.833463E-02   -1.241474E-02
    6.285900E-02    1.954453E-02
    4.377969E-02    4.442497E-02
    1.619144E-02    5.697050E-02
   -1.306697E-02    5.498507E-02
   -3.705777E-02    3.973704E-02
   -5.039133E-02    1.553839E-02
   -5.043169E-02   -1.140152E-02
   -3.779404E-02   -3.452936E-02
   -1.603862E-02   -4.851227E-02
    9.323285E-03   -5.042905E-02
