 Vespa-Simulation Mixed Metabolite Output
 This file was generated by Vespa-Simulation. You can learn about and download Vespa here:
https://github.com/vespa-mrs/vespa/tree/main/vespa

 
 Output Path/Filename = /home/stud/casperc/bhome/Project1(DeepFit)/DeepFit-data-generation/DeepFitData_TE_20_lw14_2048p
 Output Loop Values = (1,1,1)  ( Loop 1 = 10, Loop 2 = 10, Loop3 Inactive )
 Output Comment
 ---------------------------------------------------------------------------
 
 
 Experiment Information
 ---------------------------------------------------------------------------
 --- Experiment 18b0168e-f5f0-4bd4-8d52-da93aba06c60 ---
 Name: SyntheticDataSetDeepFitTE20
 Public: False
 Created: 2024-10-08T09:55:07
 Comment (abbr.): 
 PI: Casper Cappelen
 b0: 127.740000
 Peak Search PPM low/high: -15.000000 / 15.000000
 Blend tol. PPM/phase: 0.001500 / 50.000000
 Pulse seq.: 43be13ae-de9a-40a1-9a2d-c872d8bjs100 (PRESS Ideal)
 0 User static parameters: 
 22 Metabolites: 2-hydroxyglutarate, GPC-pcholine2, NAAG-truncated, alanine, choline-trimethyl, creatine, ethanolamine, gaba, glucose-beta, glutamate, glutamine, glutathione-glutamate, glutathione-glycine-cysteine, glycine, lactate, myo-inositol, n-acetylaspartate, phosphocreatine, phosphorylcholine-trimethyl, phosphorylethanolamine, pyruvate, taurine
 22 Simulations: (not shown)
 
 Metabolite Formatting Information
 ---------------------------------------------------------------------------
 Name=2-hydroxyglutarate Abbr=2HG Scale=1.0 Shift=0.0 PPM Start=-3.1207465171441986 PPM End=12.528391440425866
 Name=GPC-pcholine2 Abbr=GPC Scale=1.0 Shift=0.0 PPM Start=-3.1207465171441986 PPM End=12.528391440425866
 Name=NAAG-truncated Abbr=NAAG Scale=1.0 Shift=0.0 PPM Start=-3.1207465171441986 PPM End=12.528391440425866
 Name=alanine Abbr=Ala Scale=1.0 Shift=0.0 PPM Start=-3.1207465171441986 PPM End=12.528391440425866
 Name=choline-trimethyl Abbr=Cho Scale=1.0 Shift=0.0 PPM Start=-3.1207465171441986 PPM End=12.528391440425866
 Name=creatine Abbr=Cr Scale=1.0 Shift=0.0 PPM Start=-3.1207465171441986 PPM End=12.528391440425866
 Name=ethanolamine Abbr=ETA Scale=1.0 Shift=0.0 PPM Start=-3.1207465171441986 PPM End=12.528391440425866
 Name=gaba Abbr=GABA Scale=1.0 Shift=0.0 PPM Start=-3.1207465171441986 PPM End=12.528391440425866
 Name=glucose-beta Abbr=Glc Scale=1.0 Shift=0.0 PPM Start=-3.1207465171441986 PPM End=12.528391440425866
 Name=glutamate Abbr=Glu Scale=1.0 Shift=0.0 PPM Start=-3.1207465171441986 PPM End=12.528391440425866
 Name=glutamine Abbr=Gln Scale=1.0 Shift=0.0 PPM Start=-3.1207465171441986 PPM End=12.528391440425866
 Name=glycine Abbr=Gly Scale=1.0 Shift=0.0 PPM Start=-3.1207465171441986 PPM End=12.528391440425866
 Name=lactate Abbr=Lac Scale=1.0 Shift=0.0 PPM Start=-3.1207465171441986 PPM End=12.528391440425866
 Name=myo-inositol Abbr=mI Scale=1.0 Shift=0.0 PPM Start=-3.1207465171441986 PPM End=12.528391440425866
 Name=n-acetylaspartate Abbr=NAA Scale=1.0 Shift=0.0 PPM Start=-3.1207465171441986 PPM End=12.528391440425866
 Name=phosphocreatine Abbr=PCr Scale=1.0 Shift=0.0 PPM Start=-3.1207465171441986 PPM End=12.528391440425866
 Name=phosphorylcholine-trimethyl Abbr=PCho Scale=1.0 Shift=0.0 PPM Start=-3.1207465171441986 PPM End=12.528391440425866
 Name=phosphorylethanolamine Abbr=PE Scale=1.0 Shift=0.0 PPM Start=-3.1207465171441986 PPM End=12.528391440425866
 Name=pyruvate Abbr=Pyr Scale=1.0 Shift=0.0 PPM Start=-3.1207465171441986 PPM End=12.528391440425866
 Name=taurine Abbr=Tau Scale=1.0 Shift=0.0 PPM Start=-3.1207465171441986 PPM End=12.528391440425866
 Name=glutathione-glutamate+glutathione-glycine-cysteine Abbr=GSH Scale=1.0 Shift=0.0 PPM Start=-3.1207565171441987 PPM End=12.528
   Mixture of [metab*scale] = glutathione-glutamate*1.000000 + glutathione-glycine-cysteine*1.000000
 
 ===========================================================================
 This LCModel format RAW file was created using the 
 Vespa-Simulation spectral simulation program using 
 the following settings and parameters 
 
 Sweep Width = 2000.0 Hz 
 Vector Size = 2048 points 
 Apodization = 14.0 Hz Lorentzian broadening
 B0 Field    = 127.74 MHz 
 Ref Singlet = False
  
 This data has been FFTd to be in the FREQUENCY domain
 
 $NMID ID='mI'
 FMTDAT='(2E16.6)'
 VOLUME=1.0
 TRAMP=1.0
 $END
    3.691375E+00    1.390227E+01
    3.704766E+00    1.401640E+01
    3.718553E+00    1.413249E+01
    3.732754E+00    1.425060E+01
    3.747386E+00    1.437079E+01
    3.762468E+00    1.449312E+01
    3.778020E+00    1.461765E+01
    3.794063E+00    1.474445E+01
    3.810618E+00    1.487359E+01
    3.827709E+00    1.500513E+01
    3.845362E+00    1.513917E+01
    3.863605E+00    1.527577E+01
    3.882466E+00    1.541502E+01
    3.901976E+00    1.555700E+01
    3.922168E+00    1.570181E+01
    3.943076E+00    1.584953E+01
    3.964737E+00    1.600027E+01
    3.987191E+00    1.615413E+01
    4.010479E+00    1.631122E+01
    4.034646E+00    1.647165E+01
    4.059743E+00    1.663555E+01
    4.085819E+00    1.680303E+01
    4.112932E+00    1.697424E+01
    4.141140E+00    1.714931E+01
    4.170508E+00    1.732840E+01
    4.201107E+00    1.751165E+01
    4.233011E+00    1.769923E+01
    4.266302E+00    1.789132E+01
    4.301069E+00    1.808811E+01
    4.337408E+00    1.828978E+01
    4.375423E+00    1.849654E+01
    4.415226E+00    1.870862E+01
    4.456940E+00    1.892625E+01
    4.500700E+00    1.914968E+01
    4.546653E+00    1.937916E+01
    4.594958E+00    1.961499E+01
    4.645794E+00    1.985745E+01
    4.699353E+00    2.010688E+01
    4.755848E+00    2.036362E+01
    4.815515E+00    2.062802E+01
    4.878612E+00    2.090049E+01
    4.945428E+00    2.118144E+01
    5.016283E+00    2.147134E+01
    5.091534E+00    2.177065E+01
    5.171577E+00    2.207991E+01
    5.256858E+00    2.239969E+01
    5.347875E+00    2.273057E+01
    5.445189E+00    2.307323E+01
    5.549431E+00    2.342837E+01
    5.661313E+00    2.379675E+01
    5.781644E+00    2.417920E+01
    5.911344E+00    2.457661E+01
    6.051461E+00    2.498995E+01
    6.203198E+00    2.542028E+01
    6.367936E+00    2.586873E+01
    6.547267E+00    2.633653E+01
    6.743036E+00    2.682500E+01
    6.957382E+00    2.733556E+01
    7.192800E+00    2.786974E+01
    7.452209E+00    2.842918E+01
    7.739039E+00    2.901557E+01
    8.057331E+00    2.963072E+01
    8.411870E+00    3.027647E+01
    8.808339E+00    3.095464E+01
    9.253513E+00    3.166701E+01
    9.755493E+00    3.241513E+01
    1.032400E+01    3.320022E+01
    1.097074E+01    3.402286E+01
    1.170985E+01    3.488262E+01
    1.255846E+01    3.577746E+01
    1.353730E+01    3.670272E+01
    1.467130E+01    3.764968E+01
    1.598995E+01    3.860337E+01
    1.752713E+01    3.953958E+01
    1.931983E+01    4.042080E+01
    2.140498E+01    4.119129E+01
    2.381301E+01    4.177173E+01
    2.655677E+01    4.205529E+01
    2.961507E+01    4.190842E+01
    3.291286E+01    4.118147E+01
    3.630466E+01    3.973337E+01
    3.957210E+01    3.746870E+01
    4.244353E+01    3.437650E+01
    4.463431E+01    3.055730E+01
    4.590005E+01    2.622898E+01
    4.609274E+01    2.170418E+01
    4.520098E+01    1.733578E+01
    4.335234E+01    1.344651E+01
    4.077788E+01    1.027234E+01
    3.775925E+01    7.934808E+00
    3.457438E+01    6.440824E+00
    3.145298E+01    5.706219E+00
    2.855251E+01    5.594738E+00
    2.595811E+01    5.957075E+00
    2.369839E+01    6.657663E+00
    2.176550E+01    7.586830E+00
    2.013206E+01    8.662512E+00
    1.876284E+01    9.826802E+00
    1.762172E+01    1.104088E+01
    1.667541E+01    1.228011E+01
    1.589508E+01    1.352983E+01
    1.525680E+01    1.478216E+01
    1.474120E+01    1.603351E+01
    1.433286E+01    1.728292E+01
    1.401948E+01    1.853111E+01
    1.379131E+01    1.977988E+01
    1.364068E+01    2.103184E+01
    1.356176E+01    2.229022E+01
    1.355033E+01    2.355878E+01
    1.360373E+01    2.484166E+01
    1.372080E+01    2.614325E+01
    1.390184E+01    2.746810E+01
    1.414854E+01    2.882074E+01
    1.446399E+01    3.020569E+01
    1.485275E+01    3.162734E+01
    1.532095E+01    3.308989E+01
    1.587651E+01    3.459716E+01
    1.652936E+01    3.615236E+01
    1.729174E+01    3.775765E+01
    1.817850E+01    3.941354E+01
    1.920728E+01    4.111789E+01
    2.039849E+01    4.286464E+01
    2.177469E+01    4.464194E+01
    2.335903E+01    4.643006E+01
    2.517194E+01    4.819920E+01
    2.722549E+01    4.990866E+01
    2.951536E+01    5.150954E+01
    3.201266E+01    5.295412E+01
    3.466182E+01    5.421407E+01
    3.739393E+01    5.530272E+01
    4.016045E+01    5.628628E+01
    4.297475E+01    5.726519E+01
    4.593295E+01    5.832353E+01
    4.919252E+01    5.947200E+01
    5.291686E+01    6.061718E+01
    5.721234E+01    6.156967E+01
    6.207810E+01    6.208434E+01
    6.737872E+01    6.192546E+01
    7.285488E+01    6.095052E+01
    7.819311E+01    5.918967E+01
    8.315538E+01    5.686976E+01
    8.771586E+01    5.433380E+01
    9.211513E+01    5.186649E+01
    9.677644E+01    4.951300E+01
    1.021171E+02    4.699103E+01
    1.083422E+02    4.373443E+01
    1.152927E+02    3.904589E+01
    1.223908E+02    3.232075E+01
    1.287204E+02    2.329261E+01
    1.332624E+02    1.220754E+01
    1.352115E+02   -1.835504E-01
    1.342198E+02   -1.283499E+01
    1.304491E+02   -2.470119E+01
    1.244585E+02   -3.496941E+01
    1.170226E+02   -4.317594E+01
    1.089486E+02   -4.922499E+01
    1.009183E+02   -5.333032E+01
    9.338552E+01   -5.589583E+01
    8.655288E+01   -5.737395E+01
    8.042084E+01   -5.815055E+01
    7.487392E+01   -5.848551E+01
    6.976516E+01   -5.850810E+01
    6.497616E+01   -5.824691E+01
    6.044874E+01   -5.767429E+01
    5.619016E+01   -5.675292E+01
    5.225446E+01   -5.547272E+01
    4.871033E+01   -5.386625E+01
    4.561298E+01   -5.200142E+01
    4.299137E+01   -4.996333E+01
    4.084954E+01   -4.783831E+01
    3.917389E+01   -4.570614E+01
    3.793961E+01   -4.363900E+01
    3.711362E+01   -4.170356E+01
