 Vespa-Simulation Mixed Metabolite Output
 This file was generated by Vespa-Simulation. You can learn about and download Vespa here:
https://github.com/vespa-mrs/vespa/tree/main/vespa

 
 Output Path/Filename = /home/stud/casperc/bhome/Project1(DeepFit)/DeepFit-data-generation/DeepFitData_TE_20_lw14_2048p
 Output Loop Values = (1,1,1)  ( Loop 1 = 10, Loop 2 = 10, Loop3 Inactive )
 Output Comment
 ---------------------------------------------------------------------------
 
 
 Experiment Information
 ---------------------------------------------------------------------------
 --- Experiment 18b0168e-f5f0-4bd4-8d52-da93aba06c60 ---
 Name: SyntheticDataSetDeepFitTE20
 Public: False
 Created: 2024-10-08T09:55:07
 Comment (abbr.): 
 PI: Casper Cappelen
 b0: 127.740000
 Peak Search PPM low/high: -15.000000 / 15.000000
 Blend tol. PPM/phase: 0.001500 / 50.000000
 Pulse seq.: 43be13ae-de9a-40a1-9a2d-c872d8bjs100 (PRESS Ideal)
 0 User static parameters: 
 22 Metabolites: 2-hydroxyglutarate, GPC-pcholine2, NAAG-truncated, alanine, choline-trimethyl, creatine, ethanolamine, gaba, glucose-beta, glutamate, glutamine, glutathione-glutamate, glutathione-glycine-cysteine, glycine, lactate, myo-inositol, n-acetylaspartate, phosphocreatine, phosphorylcholine-trimethyl, phosphorylethanolamine, pyruvate, taurine
 22 Simulations: (not shown)
 
 Metabolite Formatting Information
 ---------------------------------------------------------------------------
 Name=2-hydroxyglutarate Abbr=2HG Scale=1.0 Shift=0.0 PPM Start=-3.1207465171441986 PPM End=12.528391440425866
 Name=GPC-pcholine2 Abbr=GPC Scale=1.0 Shift=0.0 PPM Start=-3.1207465171441986 PPM End=12.528391440425866
 Name=NAAG-truncated Abbr=NAAG Scale=1.0 Shift=0.0 PPM Start=-3.1207465171441986 PPM End=12.528391440425866
 Name=alanine Abbr=Ala Scale=1.0 Shift=0.0 PPM Start=-3.1207465171441986 PPM End=12.528391440425866
 Name=choline-trimethyl Abbr=Cho Scale=1.0 Shift=0.0 PPM Start=-3.1207465171441986 PPM End=12.528391440425866
 Name=creatine Abbr=Cr Scale=1.0 Shift=0.0 PPM Start=-3.1207465171441986 PPM End=12.528391440425866
 Name=ethanolamine Abbr=ETA Scale=1.0 Shift=0.0 PPM Start=-3.1207465171441986 PPM End=12.528391440425866
 Name=gaba Abbr=GABA Scale=1.0 Shift=0.0 PPM Start=-3.1207465171441986 PPM End=12.528391440425866
 Name=glucose-beta Abbr=Glc Scale=1.0 Shift=0.0 PPM Start=-3.1207465171441986 PPM End=12.528391440425866
 Name=glutamate Abbr=Glu Scale=1.0 Shift=0.0 PPM Start=-3.1207465171441986 PPM End=12.528391440425866
 Name=glutamine Abbr=Gln Scale=1.0 Shift=0.0 PPM Start=-3.1207465171441986 PPM End=12.528391440425866
 Name=glycine Abbr=Gly Scale=1.0 Shift=0.0 PPM Start=-3.1207465171441986 PPM End=12.528391440425866
 Name=lactate Abbr=Lac Scale=1.0 Shift=0.0 PPM Start=-3.1207465171441986 PPM End=12.528391440425866
 Name=myo-inositol Abbr=mI Scale=1.0 Shift=0.0 PPM Start=-3.1207465171441986 PPM End=12.528391440425866
 Name=n-acetylaspartate Abbr=NAA Scale=1.0 Shift=0.0 PPM Start=-3.1207465171441986 PPM End=12.528391440425866
 Name=phosphocreatine Abbr=PCr Scale=1.0 Shift=0.0 PPM Start=-3.1207465171441986 PPM End=12.528391440425866
 Name=phosphorylcholine-trimethyl Abbr=PCho Scale=1.0 Shift=0.0 PPM Start=-3.1207465171441986 PPM End=12.528391440425866
 Name=phosphorylethanolamine Abbr=PE Scale=1.0 Shift=0.0 PPM Start=-3.1207465171441986 PPM End=12.528391440425866
 Name=pyruvate Abbr=Pyr Scale=1.0 Shift=0.0 PPM Start=-3.1207465171441986 PPM End=12.528391440425866
 Name=taurine Abbr=Tau Scale=1.0 Shift=0.0 PPM Start=-3.1207465171441986 PPM End=12.528391440425866
 Name=glutathione-glutamate+glutathione-glycine-cysteine Abbr=GSH Scale=1.0 Shift=0.0 PPM Start=-3.1207565171441987 PPM End=12.528
   Mixture of [metab*scale] = glutathione-glutamate*1.000000 + glutathione-glycine-cysteine*1.000000
 
 ===========================================================================
 This LCModel format RAW file was created using the 
 Vespa-Simulation spectral simulation program using 
 the following settings and parameters 
 
 Sweep Width = 2000.0 Hz 
 Vector Size = 2048 points 
 Apodization = 14.0 Hz Lorentzian broadening
 B0 Field    = 127.74 MHz 
 Ref Singlet = False
  
 $NMID ID='NAA'
 FMTDAT='(2E16.6)'
 VOLUME=1.0
 TRAMP=1.0
 $END
    6.526743E+00    1.608018E-02
    3.592288E+00    3.163691E+00
   -1.813312E+00    3.760504E+00
   -4.232474E+00    1.427098E+00
   -1.787360E+00   -1.801054E+00
    2.339723E+00   -3.052317E+00
    3.864734E+00   -1.188599E+00
    1.889236E+00    1.983502E+00
   -8.811215E-01    3.391137E+00
   -1.653363E+00    1.837161E+00
   -3.808543E-01   -7.520406E-01
    9.027110E-01   -1.510080E+00
    7.433212E-01    1.354670E-01
   -3.530526E-01    1.929621E+00
   -9.456554E-01    1.595485E+00
   -4.088048E-01   -3.963752E-01
    5.654058E-01   -1.454091E+00
    8.748063E-01   -1.116149E-01
    1.070298E-01    2.090689E+00
   -1.145985E+00    2.410282E+00
   -1.803563E+00    2.140445E-01
   -1.174467E+00   -2.192019E+00
    3.727918E-01   -2.189359E+00
    1.521885E+00    1.904423E-01
    1.084145E+00    2.365518E+00
   -7.402476E-01    2.100830E+00
   -2.278932E+00   -1.740396E-01
   -1.925211E+00   -2.066550E+00
    1.079460E-01   -1.859720E+00
    1.820010E+00   -9.886764E-02
    1.465767E+00    1.310703E+00
   -5.296395E-01    1.150035E+00
   -1.991146E+00   -1.312460E-01
   -1.378572E+00   -1.178645E+00
    5.376772E-01   -1.122479E+00
    1.614662E+00   -2.189724E-01
    7.780357E-01    5.917556E-01
   -8.516883E-01    5.875550E-01
   -1.362844E+00   -1.507442E-01
   -2.524336E-01   -8.595526E-01
    1.118827E+00   -7.994418E-01
    1.199935E+00    1.660354E-02
   -3.169868E-03    7.678841E-01
   -1.065526E+00    6.228700E-01
   -8.318645E-01   -3.339878E-01
    3.586403E-01   -1.084902E+00
    1.185145E+00   -7.392813E-01
    8.327256E-01    4.246194E-01
   -2.348909E-01    1.172161E+00
   -9.028111E-01    6.571326E-01
   -5.800382E-01   -5.887606E-01
    3.148923E-01   -1.201525E+00
    8.877824E-01   -5.012727E-01
    6.433084E-01    7.422033E-01
   -1.285095E-01    1.177523E+00
   -6.929163E-01    3.768608E-01
   -5.505964E-01   -7.317147E-01
    1.309967E-01   -9.477335E-01
    6.826911E-01   -1.162002E-01
    5.605148E-01    7.880559E-01
   -1.177153E-01    8.052769E-01
   -6.630146E-01    1.102258E-02
   -5.058241E-01   -6.751944E-01
    1.896441E-01   -5.533332E-01
    6.700554E-01    1.530601E-01
    4.006760E-01    6.430487E-01
   -3.292579E-01    4.327314E-01
   -7.064731E-01   -1.939643E-01
   -3.003728E-01   -5.648729E-01
    4.411053E-01   -3.302330E-01
    6.865290E-01    2.322133E-01
    1.569014E-01    5.467513E-01
   -5.606390E-01    3.126113E-01
   -6.744314E-01   -2.296255E-01
   -6.674430E-02   -5.487726E-01
    5.954496E-01   -3.331949E-01
    6.114933E-01    2.110524E-01
   -2.830614E-03    5.528414E-01
   -5.764443E-01    3.509507E-01
   -5.308440E-01   -1.990394E-01
    3.281252E-02   -5.471340E-01
    5.038631E-01   -3.439803E-01
    4.320462E-01    1.944405E-01
   -4.345175E-02    5.091117E-01
   -4.066463E-01    2.878907E-01
   -3.209855E-01   -2.083864E-01
    6.580202E-02   -4.405260E-01
    3.304073E-01   -1.811923E-01
    2.235004E-01    2.525416E-01
   -1.045954E-01    3.720848E-01
   -2.929163E-01    6.423529E-02
   -1.498263E-01   -3.010652E-01
    1.605403E-01   -3.043920E-01
    2.983235E-01    5.249073E-02
    1.048586E-01    3.619962E-01
   -2.259948E-01    2.740546E-01
   -3.417834E-01   -1.203161E-01
   -1.008205E-01   -3.976671E-01
    2.650249E-01   -2.627741E-01
    3.775261E-01    1.445086E-01
    1.060607E-01    4.077574E-01
   -2.847638E-01    2.674683E-01
   -4.005767E-01   -1.266421E-01
   -1.244548E-01   -3.841632E-01
    2.629072E-01   -2.676611E-01
    3.764005E-01    8.815105E-02
    1.205160E-01    3.310167E-01
   -2.284394E-01    2.432624E-01
   -3.233838E-01   -6.082945E-02
   -9.931943E-02   -2.715711E-01
    1.872981E-01   -1.991751E-01
    2.477133E-01    5.198024E-02
    5.432320E-02    2.127544E-01
   -1.614113E-01    1.337369E-01
   -1.748472E-01   -7.326441E-02
    1.345359E-03   -1.736912E-01
    1.554642E-01   -6.815192E-02
    1.190085E-01    1.097449E-01
   -5.649019E-02    1.527582E-01
   -1.679355E-01    1.288131E-02
   -8.753500E-02   -1.493690E-01
    9.898109E-02   -1.475981E-01
    1.864980E-01    2.257936E-02
    7.280786E-02    1.785251E-01
   -1.284851E-01    1.496418E-01
   -2.052152E-01   -3.872291E-02
   -7.132036E-02   -1.925368E-01
    1.387955E-01   -1.533013E-01
    2.084432E-01    3.878008E-02
    6.535434E-02    1.893117E-01
   -1.426454E-01    1.492427E-01
   -2.028839E-01   -3.740478E-02
   -5.892037E-02   -1.828886E-01
    1.358017E-01   -1.459120E-01
    1.834060E-01    3.034897E-02
    4.573737E-02    1.667853E-01
   -1.263590E-01    1.300758E-01
   -1.587387E-01   -3.601737E-02
   -3.118868E-02   -1.598696E-01
    1.156308E-01   -1.188284E-01
    1.355468E-01    3.774770E-02
    2.241635E-02    1.446804E-01
   -9.863247E-02    9.536001E-02
   -1.084021E-01   -4.985565E-02
   -9.426130E-03   -1.339635E-01
    9.008836E-02   -7.319226E-02
    9.285429E-02    5.814479E-02
    5.945485E-03    1.159161E-01
   -7.602013E-02    4.500819E-02
   -7.110123E-02   -6.715353E-02
    9.545345E-03   -9.521638E-02
    7.783702E-02   -1.510486E-02
    6.160639E-02    7.696257E-02
   -2.048455E-02    7.849535E-02
   -7.860847E-02   -6.482735E-03
   -4.750938E-02   -7.919031E-02
    4.114315E-02   -5.999346E-02
    8.960821E-02    2.690474E-02
    3.997569E-02    8.614112E-02
   -5.847758E-02    5.619205E-02
   -9.862420E-02   -2.936639E-02
   -3.264279E-02   -8.245024E-02
    7.169853E-02   -5.168864E-02
    1.019881E-01    3.019749E-02
    2.398445E-02    8.317845E-02
   -7.995429E-02    5.784652E-02
   -1.004199E-01   -2.027446E-02
   -1.897241E-02   -7.713290E-02
    7.538724E-02   -5.980565E-02
    8.564688E-02    1.415428E-02
    8.840511E-03    7.306389E-02
   -6.884090E-02    5.974102E-02
   -6.981514E-02   -1.172478E-02
   -3.450677E-03   -6.874311E-02
