 Vespa-Simulation Mixed Metabolite Output
 This file was generated by Vespa-Simulation. You can learn about and download Vespa here:
https://github.com/vespa-mrs/vespa/tree/main/vespa

 
 Output Path/Filename = /home/stud/casperc/bhome/Project1(DeepFit)/DeepFit-data-generation/DeepFitData_TE_20_lw14_2048p
 Output Loop Values = (1,1,1)  ( Loop 1 = 10, Loop 2 = 10, Loop3 Inactive )
 Output Comment
 ---------------------------------------------------------------------------
 
 
 Experiment Information
 ---------------------------------------------------------------------------
 --- Experiment 18b0168e-f5f0-4bd4-8d52-da93aba06c60 ---
 Name: SyntheticDataSetDeepFitTE20
 Public: False
 Created: 2024-10-08T09:55:07
 Comment (abbr.): 
 PI: Casper Cappelen
 b0: 127.740000
 Peak Search PPM low/high: -15.000000 / 15.000000
 Blend tol. PPM/phase: 0.001500 / 50.000000
 Pulse seq.: 43be13ae-de9a-40a1-9a2d-c872d8bjs100 (PRESS Ideal)
 0 User static parameters: 
 22 Metabolites: 2-hydroxyglutarate, GPC-pcholine2, NAAG-truncated, alanine, choline-trimethyl, creatine, ethanolamine, gaba, glucose-beta, glutamate, glutamine, glutathione-glutamate, glutathione-glycine-cysteine, glycine, lactate, myo-inositol, n-acetylaspartate, phosphocreatine, phosphorylcholine-trimethyl, phosphorylethanolamine, pyruvate, taurine
 22 Simulations: (not shown)
 
 Metabolite Formatting Information
 ---------------------------------------------------------------------------
 Name=2-hydroxyglutarate Abbr=2HG Scale=1.0 Shift=0.0 PPM Start=-3.1207465171441986 PPM End=12.528391440425866
 Name=GPC-pcholine2 Abbr=GPC Scale=1.0 Shift=0.0 PPM Start=-3.1207465171441986 PPM End=12.528391440425866
 Name=NAAG-truncated Abbr=NAAG Scale=1.0 Shift=0.0 PPM Start=-3.1207465171441986 PPM End=12.528391440425866
 Name=alanine Abbr=Ala Scale=1.0 Shift=0.0 PPM Start=-3.1207465171441986 PPM End=12.528391440425866
 Name=choline-trimethyl Abbr=Cho Scale=1.0 Shift=0.0 PPM Start=-3.1207465171441986 PPM End=12.528391440425866
 Name=creatine Abbr=Cr Scale=1.0 Shift=0.0 PPM Start=-3.1207465171441986 PPM End=12.528391440425866
 Name=ethanolamine Abbr=ETA Scale=1.0 Shift=0.0 PPM Start=-3.1207465171441986 PPM End=12.528391440425866
 Name=gaba Abbr=GABA Scale=1.0 Shift=0.0 PPM Start=-3.1207465171441986 PPM End=12.528391440425866
 Name=glucose-beta Abbr=Glc Scale=1.0 Shift=0.0 PPM Start=-3.1207465171441986 PPM End=12.528391440425866
 Name=glutamate Abbr=Glu Scale=1.0 Shift=0.0 PPM Start=-3.1207465171441986 PPM End=12.528391440425866
 Name=glutamine Abbr=Gln Scale=1.0 Shift=0.0 PPM Start=-3.1207465171441986 PPM End=12.528391440425866
 Name=glycine Abbr=Gly Scale=1.0 Shift=0.0 PPM Start=-3.1207465171441986 PPM End=12.528391440425866
 Name=lactate Abbr=Lac Scale=1.0 Shift=0.0 PPM Start=-3.1207465171441986 PPM End=12.528391440425866
 Name=myo-inositol Abbr=mI Scale=1.0 Shift=0.0 PPM Start=-3.1207465171441986 PPM End=12.528391440425866
 Name=n-acetylaspartate Abbr=NAA Scale=1.0 Shift=0.0 PPM Start=-3.1207465171441986 PPM End=12.528391440425866
 Name=phosphocreatine Abbr=PCr Scale=1.0 Shift=0.0 PPM Start=-3.1207465171441986 PPM End=12.528391440425866
 Name=phosphorylcholine-trimethyl Abbr=PCho Scale=1.0 Shift=0.0 PPM Start=-3.1207465171441986 PPM End=12.528391440425866
 Name=phosphorylethanolamine Abbr=PE Scale=1.0 Shift=0.0 PPM Start=-3.1207465171441986 PPM End=12.528391440425866
 Name=pyruvate Abbr=Pyr Scale=1.0 Shift=0.0 PPM Start=-3.1207465171441986 PPM End=12.528391440425866
 Name=taurine Abbr=Tau Scale=1.0 Shift=0.0 PPM Start=-3.1207465171441986 PPM End=12.528391440425866
 Name=glutathione-glutamate+glutathione-glycine-cysteine Abbr=GSH Scale=1.0 Shift=0.0 PPM Start=-3.1207565171441987 PPM End=12.528
   Mixture of [metab*scale] = glutathione-glutamate*1.000000 + glutathione-glycine-cysteine*1.000000
 
 ===========================================================================
 This LCModel format RAW file was created using the 
 Vespa-Simulation spectral simulation program using 
 the following settings and parameters 
 
 Sweep Width = 2000.0 Hz 
 Vector Size = 2048 points 
 Apodization = 14.0 Hz Lorentzian broadening
 B0 Field    = 127.74 MHz 
 Ref Singlet = False
  
 This data has been FFTd to be in the FREQUENCY domain
 
 $NMID ID='NAA'
 FMTDAT='(2E16.6)'
 VOLUME=1.0
 TRAMP=1.0
 $END
    4.966509E+00    9.714538E+00
    5.044019E+00    9.860974E+00
    5.127043E+00    1.001288E+01
    5.216165E+00    1.017068E+01
    5.312114E+00    1.033485E+01
    5.415816E+00    1.050589E+01
    5.528457E+00    1.068428E+01
    5.651495E+00    1.087032E+01
    5.786582E+00    1.106402E+01
    5.935387E+00    1.126506E+01
    6.099406E+00    1.147289E+01
    6.279935E+00    1.168702E+01
    6.478298E+00    1.190722E+01
    6.696213E+00    1.213353E+01
    6.936088E+00    1.236599E+01
    7.201106E+00    1.260422E+01
    7.495051E+00    1.284703E+01
    7.822006E+00    1.309223E+01
    8.186097E+00    1.333663E+01
    8.591400E+00    1.357604E+01
    9.041950E+00    1.380515E+01
    9.541622E+00    1.401715E+01
    1.009372E+01    1.420326E+01
    1.070016E+01    1.435233E+01
    1.136017E+01    1.445068E+01
    1.206848E+01    1.448266E+01
    1.281338E+01    1.443244E+01
    1.357534E+01    1.428767E+01
    1.432819E+01    1.404487E+01
    1.504501E+01    1.371486E+01
    1.570919E+01    1.332302E+01
    1.632537E+01    1.289914E+01
    1.691875E+01    1.245844E+01
    1.751688E+01    1.198796E+01
    1.812502E+01    1.145414E+01
    1.871774E+01    1.082872E+01
    1.925544E+01    1.011038E+01
    1.971028E+01    9.323456E+00
    2.007866E+01    8.497718E+00
    2.037242E+01    7.648884E+00
    2.060002E+01    6.775970E+00
    2.075627E+01    5.874734E+00
    2.082922E+01    4.950867E+00
    2.081303E+01    4.018320E+00
    2.070933E+01    3.088012E+00
    2.051676E+01    2.164776E+00
    2.022551E+01    1.258122E+00
    1.982753E+01    3.926352E-01
    1.933328E+01   -3.972051E-01
    1.877743E+01   -1.086971E+00
    1.820410E+01   -1.681132E+00
    1.764004E+01   -2.212425E+00
    1.707800E+01   -2.718290E+00
    1.648617E+01   -3.213051E+00
    1.583500E+01   -3.679410E+00
    1.511781E+01   -4.083075E+00
    1.435207E+01   -4.393940E+00
    1.356766E+01   -4.597965E+00
    1.279427E+01   -4.697299E+00
    1.205453E+01   -4.704501E+00
    1.136248E+01   -4.636411E+00
    1.072489E+01   -4.509991E+00
    1.014346E+01   -4.340242E+00
    9.616744E+00   -4.139522E+00
    9.141665E+00   -3.917641E+00
    8.714369E+00   -3.682301E+00
    8.330700E+00   -3.439576E+00
    7.986334E+00   -3.194264E+00
    7.676819E+00   -2.950004E+00
    7.397724E+00   -2.709239E+00
    7.144984E+00   -2.473252E+00
    6.915255E+00   -2.242441E+00
    6.706071E+00   -2.016791E+00
    6.515707E+00   -1.796336E+00
    6.342819E+00   -1.581429E+00
    6.186042E+00   -1.372715E+00
    6.043761E+00   -1.170860E+00
    5.914163E+00   -9.762552E-01
    5.795463E+00   -7.888922E-01
    5.686109E+00   -6.084356E-01
    5.584863E+00   -4.343815E-01
    5.490771E+00   -2.661918E-01
    5.403099E+00   -1.033708E-01
    5.321265E+00    5.450826E-02
    5.244782E+00    2.078034E-01
    5.173230E+00    3.568166E-01
    5.106230E+00    5.018079E-01
    5.043440E+00    6.430078E-01
    4.984545E+00    7.806262E-01
    4.929260E+00    9.148567E-01
    4.877322E+00    1.045880E+00
    4.828491E+00    1.173865E+00
    4.782549E+00    1.298969E+00
    4.739292E+00    1.421339E+00
    4.698534E+00    1.541117E+00
    4.660102E+00    1.658436E+00
    4.623838E+00    1.773425E+00
    4.589597E+00    1.886210E+00
    4.557248E+00    1.996908E+00
    4.526673E+00    2.105630E+00
    4.497763E+00    2.212481E+00
    4.470418E+00    2.317558E+00
    4.444542E+00    2.420953E+00
    4.420049E+00    2.522754E+00
    4.396857E+00    2.623046E+00
    4.374888E+00    2.721909E+00
    4.354074E+00    2.819423E+00
    4.334349E+00    2.915662E+00
    4.315654E+00    3.010698E+00
    4.297935E+00    3.104597E+00
    4.281138E+00    3.197423E+00
    4.265214E+00    3.289241E+00
    4.250117E+00    3.380109E+00
    4.235805E+00    3.470089E+00
    4.222240E+00    3.559238E+00
    4.209387E+00    3.647610E+00
    4.197216E+00    3.735258E+00
    4.185699E+00    3.822229E+00
    4.174805E+00    3.908570E+00
    4.164509E+00    3.994324E+00
    4.154783E+00    4.079536E+00
    4.145603E+00    4.164248E+00
    4.136948E+00    4.248503E+00
    4.128797E+00    4.332342E+00
    4.121132E+00    4.415801E+00
    4.113933E+00    4.498919E+00
    4.107183E+00    4.581731E+00
    4.100865E+00    4.664275E+00
    4.094964E+00    4.746586E+00
    4.089464E+00    4.828701E+00
    4.084356E+00    4.910654E+00
    4.079627E+00    4.992478E+00
    4.075267E+00    5.074207E+00
    4.071269E+00    5.155872E+00
    4.067622E+00    5.237502E+00
    4.064319E+00    5.319129E+00
    4.061351E+00    5.400781E+00
    4.058710E+00    5.482488E+00
    4.056391E+00    5.564278E+00
    4.054387E+00    5.646182E+00
    4.052691E+00    5.728226E+00
    4.051300E+00    5.810440E+00
    4.050207E+00    5.892850E+00
    4.049408E+00    5.975485E+00
    4.048899E+00    6.058372E+00
    4.048675E+00    6.141540E+00
    4.048733E+00    6.225018E+00
    4.049072E+00    6.308833E+00
    4.049688E+00    6.393015E+00
    4.050580E+00    6.477591E+00
    4.051748E+00    6.562590E+00
    4.053191E+00    6.648041E+00
    4.054909E+00    6.733972E+00
    4.056902E+00    6.820412E+00
    4.059171E+00    6.907390E+00
    4.061719E+00    6.994934E+00
    4.064545E+00    7.083074E+00
    4.067651E+00    7.171838E+00
    4.071038E+00    7.261257E+00
    4.074708E+00    7.351361E+00
    4.078663E+00    7.442182E+00
    4.082904E+00    7.533754E+00
    4.087437E+00    7.626110E+00
    4.092266E+00    7.719284E+00
    4.097397E+00    7.813311E+00
    4.102837E+00    7.908225E+00
    4.108594E+00    8.004058E+00
    4.114673E+00    8.100846E+00
    4.121080E+00    8.198621E+00
    4.127820E+00    8.297421E+00
    4.134898E+00    8.397283E+00
    4.142318E+00    8.498247E+00
