 Vespa-Simulation Mixed Metabolite Output
 This file was generated by Vespa-Simulation. You can learn about and download Vespa here:
https://github.com/vespa-mrs/vespa/tree/main/vespa

 
 Output Path/Filename = /home/stud/casperc/bhome/Project1(DeepFit)/DeepFit-data-generation/DeepFitData_TE_20_lw14_2048p
 Output Loop Values = (1,1,1)  ( Loop 1 = 10, Loop 2 = 10, Loop3 Inactive )
 Output Comment
 ---------------------------------------------------------------------------
 
 
 Experiment Information
 ---------------------------------------------------------------------------
 --- Experiment 18b0168e-f5f0-4bd4-8d52-da93aba06c60 ---
 Name: SyntheticDataSetDeepFitTE20
 Public: False
 Created: 2024-10-08T09:55:07
 Comment (abbr.): 
 PI: Casper Cappelen
 b0: 127.740000
 Peak Search PPM low/high: -15.000000 / 15.000000
 Blend tol. PPM/phase: 0.001500 / 50.000000
 Pulse seq.: 43be13ae-de9a-40a1-9a2d-c872d8bjs100 (PRESS Ideal)
 0 User static parameters: 
 22 Metabolites: 2-hydroxyglutarate, GPC-pcholine2, NAAG-truncated, alanine, choline-trimethyl, creatine, ethanolamine, gaba, glucose-beta, glutamate, glutamine, glutathione-glutamate, glutathione-glycine-cysteine, glycine, lactate, myo-inositol, n-acetylaspartate, phosphocreatine, phosphorylcholine-trimethyl, phosphorylethanolamine, pyruvate, taurine
 22 Simulations: (not shown)
 
 Metabolite Formatting Information
 ---------------------------------------------------------------------------
 Name=2-hydroxyglutarate Abbr=2HG Scale=1.0 Shift=0.0 PPM Start=-3.1207465171441986 PPM End=12.528391440425866
 Name=GPC-pcholine2 Abbr=GPC Scale=1.0 Shift=0.0 PPM Start=-3.1207465171441986 PPM End=12.528391440425866
 Name=NAAG-truncated Abbr=NAAG Scale=1.0 Shift=0.0 PPM Start=-3.1207465171441986 PPM End=12.528391440425866
 Name=alanine Abbr=Ala Scale=1.0 Shift=0.0 PPM Start=-3.1207465171441986 PPM End=12.528391440425866
 Name=choline-trimethyl Abbr=Cho Scale=1.0 Shift=0.0 PPM Start=-3.1207465171441986 PPM End=12.528391440425866
 Name=creatine Abbr=Cr Scale=1.0 Shift=0.0 PPM Start=-3.1207465171441986 PPM End=12.528391440425866
 Name=ethanolamine Abbr=ETA Scale=1.0 Shift=0.0 PPM Start=-3.1207465171441986 PPM End=12.528391440425866
 Name=gaba Abbr=GABA Scale=1.0 Shift=0.0 PPM Start=-3.1207465171441986 PPM End=12.528391440425866
 Name=glucose-beta Abbr=Glc Scale=1.0 Shift=0.0 PPM Start=-3.1207465171441986 PPM End=12.528391440425866
 Name=glutamate Abbr=Glu Scale=1.0 Shift=0.0 PPM Start=-3.1207465171441986 PPM End=12.528391440425866
 Name=glutamine Abbr=Gln Scale=1.0 Shift=0.0 PPM Start=-3.1207465171441986 PPM End=12.528391440425866
 Name=glycine Abbr=Gly Scale=1.0 Shift=0.0 PPM Start=-3.1207465171441986 PPM End=12.528391440425866
 Name=lactate Abbr=Lac Scale=1.0 Shift=0.0 PPM Start=-3.1207465171441986 PPM End=12.528391440425866
 Name=myo-inositol Abbr=mI Scale=1.0 Shift=0.0 PPM Start=-3.1207465171441986 PPM End=12.528391440425866
 Name=n-acetylaspartate Abbr=NAA Scale=1.0 Shift=0.0 PPM Start=-3.1207465171441986 PPM End=12.528391440425866
 Name=phosphocreatine Abbr=PCr Scale=1.0 Shift=0.0 PPM Start=-3.1207465171441986 PPM End=12.528391440425866
 Name=phosphorylcholine-trimethyl Abbr=PCho Scale=1.0 Shift=0.0 PPM Start=-3.1207465171441986 PPM End=12.528391440425866
 Name=phosphorylethanolamine Abbr=PE Scale=1.0 Shift=0.0 PPM Start=-3.1207465171441986 PPM End=12.528391440425866
 Name=pyruvate Abbr=Pyr Scale=1.0 Shift=0.0 PPM Start=-3.1207465171441986 PPM End=12.528391440425866
 Name=taurine Abbr=Tau Scale=1.0 Shift=0.0 PPM Start=-3.1207465171441986 PPM End=12.528391440425866
 Name=glutathione-glutamate+glutathione-glycine-cysteine Abbr=GSH Scale=1.0 Shift=0.0 PPM Start=-3.1207565171441987 PPM End=12.528
   Mixture of [metab*scale] = glutathione-glutamate*1.000000 + glutathione-glycine-cysteine*1.000000
 
 ===========================================================================
 This LCModel format RAW file was created using the 
 Vespa-Simulation spectral simulation program using 
 the following settings and parameters 
 
 Sweep Width = 2000.0 Hz 
 Vector Size = 2048 points 
 Apodization = 14.0 Hz Lorentzian broadening
 B0 Field    = 127.74 MHz 
 Ref Singlet = False
  
 This data has been FFTd to be in the FREQUENCY domain
 
 $NMID ID='NAAG'
 FMTDAT='(2E16.6)'
 VOLUME=1.0
 TRAMP=1.0
 $END
    5.212709E-01    8.464569E-01
    5.213789E-01    8.494278E-01
    5.214880E-01    8.524145E-01
    5.215982E-01    8.554172E-01
    5.217093E-01    8.584359E-01
    5.218213E-01    8.614709E-01
    5.219342E-01    8.645225E-01
    5.220483E-01    8.675911E-01
    5.221640E-01    8.706769E-01
    5.222817E-01    8.737796E-01
    5.224016E-01    8.768990E-01
    5.225235E-01    8.800348E-01
    5.226471E-01    8.831867E-01
    5.227718E-01    8.863548E-01
    5.228974E-01    8.895396E-01
    5.230236E-01    8.927416E-01
    5.231508E-01    8.959614E-01
    5.232792E-01    8.991989E-01
    5.234091E-01    9.024541E-01
    5.235401E-01    9.057268E-01
    5.236718E-01    9.090174E-01
    5.238038E-01    9.123265E-01
    5.239366E-01    9.156549E-01
    5.240708E-01    9.190029E-01
    5.242071E-01    9.223704E-01
    5.243455E-01    9.257571E-01
    5.244858E-01    9.291625E-01
    5.246279E-01    9.325867E-01
    5.247713E-01    9.360298E-01
    5.249158E-01    9.394922E-01
    5.250614E-01    9.429741E-01
    5.252078E-01    9.464759E-01
    5.253551E-01    9.499978E-01
    5.255031E-01    9.535403E-01
    5.256519E-01    9.571038E-01
    5.258016E-01    9.606888E-01
    5.259523E-01    9.642956E-01
    5.261044E-01    9.679245E-01
    5.262581E-01    9.715759E-01
    5.264137E-01    9.752500E-01
    5.265715E-01    9.789469E-01
    5.267319E-01    9.826666E-01
    5.268954E-01    9.864089E-01
    5.270620E-01    9.901733E-01
    5.272314E-01    9.939593E-01
    5.274030E-01    9.977668E-01
    5.275760E-01    1.001596E+00
    5.277496E-01    1.005447E+00
    5.279235E-01    1.009321E+00
    5.280977E-01    1.013220E+00
    5.282724E-01    1.017142E+00
    5.284479E-01    1.021091E+00
    5.286245E-01    1.025065E+00
    5.288025E-01    1.029064E+00
    5.289820E-01    1.033091E+00
    5.291635E-01    1.037144E+00
    5.293477E-01    1.041225E+00
    5.295358E-01    1.045334E+00
    5.297290E-01    1.049470E+00
    5.299277E-01    1.053631E+00
    5.301311E-01    1.057815E+00
    5.303371E-01    1.062021E+00
    5.305428E-01    1.066250E+00
    5.307455E-01    1.070504E+00
    5.309437E-01    1.074785E+00
    5.311384E-01    1.079098E+00
    5.313321E-01    1.083446E+00
    5.315282E-01    1.087829E+00
    5.317297E-01    1.092246E+00
    5.319382E-01    1.096697E+00
    5.321543E-01    1.101177E+00
    5.323781E-01    1.105687E+00
    5.326086E-01    1.110224E+00
    5.328433E-01    1.114786E+00
    5.330793E-01    1.119373E+00
    5.333134E-01    1.123987E+00
    5.335443E-01    1.128632E+00
    5.337725E-01    1.133312E+00
    5.340001E-01    1.138028E+00
    5.342299E-01    1.142782E+00
    5.344643E-01    1.147573E+00
    5.347044E-01    1.152400E+00
    5.349504E-01    1.157261E+00
    5.352015E-01    1.162156E+00
    5.354567E-01    1.167085E+00
    5.357153E-01    1.172047E+00
    5.359772E-01    1.177045E+00
    5.362424E-01    1.182077E+00
    5.365108E-01    1.187145E+00
    5.367822E-01    1.192249E+00
    5.370559E-01    1.197388E+00
    5.373312E-01    1.202565E+00
    5.376077E-01    1.207779E+00
    5.378856E-01    1.213033E+00
    5.381656E-01    1.218329E+00
    5.384488E-01    1.223665E+00
    5.387362E-01    1.229044E+00
    5.390285E-01    1.234464E+00
    5.393256E-01    1.239925E+00
    5.396275E-01    1.245428E+00
    5.399336E-01    1.250972E+00
    5.402437E-01    1.256558E+00
    5.405577E-01    1.262187E+00
    5.408758E-01    1.267860E+00
    5.411982E-01    1.273576E+00
    5.415250E-01    1.279337E+00
    5.418558E-01    1.285142E+00
    5.421901E-01    1.290991E+00
    5.425275E-01    1.296887E+00
    5.428680E-01    1.302830E+00
    5.432119E-01    1.308821E+00
    5.435600E-01    1.314862E+00
    5.439132E-01    1.320953E+00
    5.442720E-01    1.327093E+00
    5.446362E-01    1.333283E+00
    5.450056E-01    1.339524E+00
    5.453799E-01    1.345815E+00
    5.457588E-01    1.352157E+00
    5.461427E-01    1.358553E+00
    5.465319E-01    1.365001E+00
    5.469265E-01    1.371504E+00
    5.473262E-01    1.378060E+00
    5.477307E-01    1.384670E+00
    5.481397E-01    1.391337E+00
    5.485530E-01    1.398060E+00
    5.489707E-01    1.404842E+00
    5.493933E-01    1.411682E+00
    5.498212E-01    1.418583E+00
    5.502548E-01    1.425545E+00
    5.506945E-01    1.432569E+00
    5.511406E-01    1.439655E+00
    5.515932E-01    1.446804E+00
    5.520522E-01    1.454017E+00
    5.525179E-01    1.461294E+00
    5.529903E-01    1.468637E+00
    5.534697E-01    1.476047E+00
    5.539563E-01    1.483524E+00
    5.544503E-01    1.491069E+00
    5.549516E-01    1.498683E+00
    5.554600E-01    1.506366E+00
    5.559754E-01    1.514121E+00
    5.564978E-01    1.521948E+00
    5.570275E-01    1.529848E+00
    5.575647E-01    1.537823E+00
    5.581099E-01    1.545874E+00
    5.586634E-01    1.554001E+00
    5.592254E-01    1.562207E+00
    5.597961E-01    1.570491E+00
    5.603754E-01    1.578856E+00
    5.609636E-01    1.587302E+00
    5.615609E-01    1.595830E+00
    5.621676E-01    1.604443E+00
    5.627840E-01    1.613140E+00
    5.634103E-01    1.621923E+00
    5.640464E-01    1.630794E+00
    5.646922E-01    1.639753E+00
    5.653476E-01    1.648803E+00
    5.660129E-01    1.657945E+00
    5.666885E-01    1.667180E+00
    5.673751E-01    1.676512E+00
    5.680735E-01    1.685941E+00
    5.687847E-01    1.695468E+00
    5.695091E-01    1.705094E+00
    5.702471E-01    1.714820E+00
    5.709985E-01    1.724648E+00
    5.717630E-01    1.734577E+00
    5.725398E-01    1.744610E+00
    5.733283E-01    1.754748E+00
    5.741279E-01    1.764994E+00
    5.749389E-01    1.775352E+00
    5.757617E-01    1.785822E+00
    5.765970E-01    1.796408E+00
