 Vespa-Simulation Mixed Metabolite Output
 This file was generated by Vespa-Simulation. You can learn about and download Vespa here:
https://github.com/vespa-mrs/vespa/tree/main/vespa

 
 Output Path/Filename = /home/stud/casperc/bhome/Project1(DeepFit)/DeepFit-data-generation/DeepFitData_TE_20_lw14_2048p
 Output Loop Values = (1,1,1)  ( Loop 1 = 10, Loop 2 = 10, Loop3 Inactive )
 Output Comment
 ---------------------------------------------------------------------------
 
 
 Experiment Information
 ---------------------------------------------------------------------------
 --- Experiment 18b0168e-f5f0-4bd4-8d52-da93aba06c60 ---
 Name: SyntheticDataSetDeepFitTE20
 Public: False
 Created: 2024-10-08T09:55:07
 Comment (abbr.): 
 PI: Casper Cappelen
 b0: 127.740000
 Peak Search PPM low/high: -15.000000 / 15.000000
 Blend tol. PPM/phase: 0.001500 / 50.000000
 Pulse seq.: 43be13ae-de9a-40a1-9a2d-c872d8bjs100 (PRESS Ideal)
 0 User static parameters: 
 22 Metabolites: 2-hydroxyglutarate, GPC-pcholine2, NAAG-truncated, alanine, choline-trimethyl, creatine, ethanolamine, gaba, glucose-beta, glutamate, glutamine, glutathione-glutamate, glutathione-glycine-cysteine, glycine, lactate, myo-inositol, n-acetylaspartate, phosphocreatine, phosphorylcholine-trimethyl, phosphorylethanolamine, pyruvate, taurine
 22 Simulations: (not shown)
 
 Metabolite Formatting Information
 ---------------------------------------------------------------------------
 Name=2-hydroxyglutarate Abbr=2HG Scale=1.0 Shift=0.0 PPM Start=-3.1207465171441986 PPM End=12.528391440425866
 Name=GPC-pcholine2 Abbr=GPC Scale=1.0 Shift=0.0 PPM Start=-3.1207465171441986 PPM End=12.528391440425866
 Name=NAAG-truncated Abbr=NAAG Scale=1.0 Shift=0.0 PPM Start=-3.1207465171441986 PPM End=12.528391440425866
 Name=alanine Abbr=Ala Scale=1.0 Shift=0.0 PPM Start=-3.1207465171441986 PPM End=12.528391440425866
 Name=choline-trimethyl Abbr=Cho Scale=1.0 Shift=0.0 PPM Start=-3.1207465171441986 PPM End=12.528391440425866
 Name=creatine Abbr=Cr Scale=1.0 Shift=0.0 PPM Start=-3.1207465171441986 PPM End=12.528391440425866
 Name=ethanolamine Abbr=ETA Scale=1.0 Shift=0.0 PPM Start=-3.1207465171441986 PPM End=12.528391440425866
 Name=gaba Abbr=GABA Scale=1.0 Shift=0.0 PPM Start=-3.1207465171441986 PPM End=12.528391440425866
 Name=glucose-beta Abbr=Glc Scale=1.0 Shift=0.0 PPM Start=-3.1207465171441986 PPM End=12.528391440425866
 Name=glutamate Abbr=Glu Scale=1.0 Shift=0.0 PPM Start=-3.1207465171441986 PPM End=12.528391440425866
 Name=glutamine Abbr=Gln Scale=1.0 Shift=0.0 PPM Start=-3.1207465171441986 PPM End=12.528391440425866
 Name=glycine Abbr=Gly Scale=1.0 Shift=0.0 PPM Start=-3.1207465171441986 PPM End=12.528391440425866
 Name=lactate Abbr=Lac Scale=1.0 Shift=0.0 PPM Start=-3.1207465171441986 PPM End=12.528391440425866
 Name=myo-inositol Abbr=mI Scale=1.0 Shift=0.0 PPM Start=-3.1207465171441986 PPM End=12.528391440425866
 Name=n-acetylaspartate Abbr=NAA Scale=1.0 Shift=0.0 PPM Start=-3.1207465171441986 PPM End=12.528391440425866
 Name=phosphocreatine Abbr=PCr Scale=1.0 Shift=0.0 PPM Start=-3.1207465171441986 PPM End=12.528391440425866
 Name=phosphorylcholine-trimethyl Abbr=PCho Scale=1.0 Shift=0.0 PPM Start=-3.1207465171441986 PPM End=12.528391440425866
 Name=phosphorylethanolamine Abbr=PE Scale=1.0 Shift=0.0 PPM Start=-3.1207465171441986 PPM End=12.528391440425866
 Name=pyruvate Abbr=Pyr Scale=1.0 Shift=0.0 PPM Start=-3.1207465171441986 PPM End=12.528391440425866
 Name=taurine Abbr=Tau Scale=1.0 Shift=0.0 PPM Start=-3.1207465171441986 PPM End=12.528391440425866
 Name=glutathione-glutamate+glutathione-glycine-cysteine Abbr=GSH Scale=1.0 Shift=0.0 PPM Start=-3.1207565171441987 PPM End=12.528
   Mixture of [metab*scale] = glutathione-glutamate*1.000000 + glutathione-glycine-cysteine*1.000000
 
 ===========================================================================
 This LCModel format RAW file was created using the 
 Vespa-Simulation spectral simulation program using 
 the following settings and parameters 
 
 Sweep Width = 2000.0 Hz 
 Vector Size = 2048 points 
 Apodization = 14.0 Hz Lorentzian broadening
 B0 Field    = 127.74 MHz 
 Ref Singlet = False
  
 $NMID ID='NAAG'
 FMTDAT='(2E16.6)'
 VOLUME=1.0
 TRAMP=1.0
 $END
    1.000000E+00    4.440892E-16
    4.725322E-01    8.565537E-01
   -5.103975E-01    8.094984E-01
   -9.345582E-01   -5.466831E-02
   -3.947821E-01   -8.263319E-01
    5.212493E-01   -7.286212E-01
    8.704103E-01    1.021814E-01
    3.237726E-01    7.938372E-01
   -5.269716E-01    6.524421E-01
   -8.078632E-01   -1.430768E-01
   -2.591881E-01   -7.595867E-01
    5.281524E-01   -5.809375E-01
    7.471730E-01    1.778795E-01
    2.006996E-01    7.240477E-01
   -5.253489E-01    5.140456E-01
   -6.885527E-01   -2.070841E-01
   -1.479817E-01   -6.876369E-01
    5.190720E-01   -4.516845E-01
    6.321721E-01    2.311729E-01
    1.007093E-01    6.507260E-01
   -5.097935E-01    3.937517E-01
   -5.781632E-01   -2.506054E-01
   -5.854344E-02   -6.136470E-01
    4.979580E-01   -3.401133E-01
    5.266264E-01    2.658136E-01
    2.116408E-02    5.766893E-01
   -4.839648E-01    2.906322E-01
   -4.776309E-01   -2.772090E-01
    1.174862E-02   -5.401066E-01
    4.681801E-01   -2.451579E-01
    4.312209E-01    2.851766E-01
   -4.050353E-02    5.041190E-01
   -4.509459E-01    2.035153E-01
   -3.874104E-01   -2.900890E-01
    6.541683E-02   -4.689136E-01
    4.325600E-01   -1.655469E-01
    3.462006E-01    2.922821E-01
   -8.676799E-02    4.346514E-01
   -4.133019E-01    1.310684E-01
   -3.075631E-01   -2.920838E-01
    1.048490E-01   -4.014641E-01
    3.934209E-01   -9.989263E-02
    2.714696E-01    2.897817E-01
   -1.199385E-01    3.694584E-01
   -3.731353E-01    7.185001E-02
   -2.378594E-01   -2.856609E-01
    1.322852E-01   -3.387243E-01
    3.526442E-01   -4.675141E-02
    2.066785E-01    2.799689E-01
   -1.421438E-01    3.093266E-01
   -3.321226E-01    2.441019E-02
   -1.778493E-01   -2.729449E-01
    1.497548E-01   -2.813115E-01
    3.117223E-01   -4.657996E-03
    1.512865E-01    2.648071E-01
   -1.553319E-01    2.547160E-01
   -2.915772E-01   -1.269102E-02
   -1.269109E-01   -2.557475E-01
    1.590902E-01   -2.295561E-01
    2.718022E-01    2.779893E-02
    1.046258E-01    2.459483E-01
   -1.612305E-01    2.058348E-01
   -2.524955E-01   -4.083720E-02
   -8.433103E-02   -2.355735E-01
    1.619338E-01   -1.835488E-01
    2.337395E-01    5.196686E-02
    6.593516E-02    2.247670E-01
   -1.613698E-01    1.626853E-01
   -2.156006E-01   -6.134968E-02
   -4.933387E-02   -2.136621E-01
    1.597024E-01   -1.432180E-01
    1.981378E-01    6.912020E-02
    3.442602E-02    2.023765E-01
   -1.570799E-01    1.251158E-01
   -1.813931E-01   -7.542764E-02
   -2.110466E-02   -1.910151E-01
    1.536395E-01   -1.083416E-01
    1.653994E-01    8.040700E-02
    9.282122E-03    1.796684E-01
   -1.495103E-01    9.284850E-02
   -1.501801E-01   -8.418625E-02
    1.146494E-03   -1.684180E-01
    1.448015E-01   -7.859970E-02
    1.357502E-01    8.688623E-02
   -1.027767E-02    1.573338E-01
   -1.396219E-01    6.554076E-02
   -1.221143E-01   -8.862456E-02
    1.820539E-02   -1.464758E-01
    1.340675E-01   -5.361955E-02
    1.092785E-01    8.949996E-02
   -2.502504E-02    1.358943E-01
   -1.282249E-01    4.278210E-02
   -9.723480E-02   -8.961640E-02
    3.081573E-02   -1.256332E-01
    1.221723E-01   -3.297323E-02
    8.597294E-02    8.906691E-02
   -3.566657E-02    1.157271E-01
   -1.159803E-01    2.413349E-02
   -7.547808E-02   -8.793775E-02
    3.965847E-02   -1.062041E-01
    1.097096E-01   -1.621435E-02
    6.572905E-02    8.631087E-02
   -4.286857E-02    9.708613E-02
   -1.034163E-01    9.156227E-03
   -5.670965E-02   -8.425550E-02
    4.537019E-02   -8.838936E-02
    9.714911E-02   -2.904003E-03
    4.839284E-02    8.184160E-02
   -4.723520E-02    8.012345E-02
   -9.095026E-02   -2.596483E-03
   -4.075224E-02   -7.913104E-02
    4.852384E-02   -7.229805E-02
    8.485617E-02    7.400823E-03
    3.375983E-02    7.618022E-02
   -4.930038E-02    6.491430E-02
   -7.889850E-02   -1.155498E-02
   -2.738631E-02   -7.304027E-02
    4.962249E-02   -5.797132E-02
    7.310365E-02    1.511162E-02
    2.159933E-02    6.975809E-02
   -4.954400E-02    5.146508E-02
   -6.749358E-02   -1.811874E-02
   -1.637267E-02   -6.637371E-02
    4.911640E-02   -4.538736E-02
    6.208628E-02    2.062241E-02
    1.167304E-02    6.292508E-02
   -4.838315E-02    3.973230E-02
   -5.689526E-02   -2.266844E-02
   -7.467612E-03   -5.944548E-02
    4.738768E-02   -3.448889E-02
    5.193360E-02    2.429342E-02
    3.731217E-03    5.596337E-02
   -4.617275E-02    2.964009E-02
   -4.720623E-02   -2.554393E-02
   -4.262795E-04   -5.250500E-02
    4.477213E-02   -2.517506E-02
    4.271984E-02    2.645406E-02
   -2.470149E-03    4.909238E-02
   -4.321766E-02    2.108156E-02
   -3.847899E-02   -2.705685E-02
    4.993460E-03   -4.574451E-02
    4.154235E-02   -1.733824E-02
    3.448100E-02    2.739065E-02
   -7.168535E-03    4.247773E-02
   -3.977108E-02    1.393403E-02
   -3.072813E-02   -2.748204E-02
    9.020136E-03   -3.930636E-02
    3.793041E-02   -1.084698E-02
    2.721413E-02    2.736411E-02
   -1.057958E-02    3.624069E-02
   -3.604135E-02    8.062618E-03
   -2.393825E-02   -2.706021E-02
    1.186721E-02   -3.329111E-02
    3.412331E-02   -5.565938E-03
    2.089167E-02    2.659854E-02
   -1.291134E-02    3.046339E-02
   -3.219458E-02    3.335408E-03
   -1.806972E-02   -2.600045E-02
    1.373249E-02   -2.776361E-02
    3.027000E-02   -1.358237E-03
    1.546674E-02    2.528620E-02
   -1.435066E-02    2.519652E-02
   -2.836331E-02   -3.861806E-04
   -1.307159E-02   -2.447729E-02
    1.478956E-02   -2.276271E-02
    2.648600E-02    1.912157E-03
    1.087891E-02    2.358966E-02
   -1.506534E-02    2.046512E-02
   -2.464830E-02   -3.234050E-03
   -8.876789E-03   -2.264086E-02
    1.519869E-02   -1.830186E-02
    2.285836E-02    4.370471E-03
    7.057587E-03    2.164465E-02
   -1.520399E-02    1.627383E-02
