 Vespa-Simulation Mixed Metabolite Output
 This file was generated by Vespa-Simulation. You can learn about and download Vespa here:
https://github.com/vespa-mrs/vespa/tree/main/vespa

 
 Output Path/Filename = /home/stud/casperc/bhome/Project1(DeepFit)/DeepFit-data-generation/DeepFitData_TE_20_lw14_2048p
 Output Loop Values = (1,1,1)  ( Loop 1 = 10, Loop 2 = 10, Loop3 Inactive )
 Output Comment
 ---------------------------------------------------------------------------
 
 
 Experiment Information
 ---------------------------------------------------------------------------
 --- Experiment 18b0168e-f5f0-4bd4-8d52-da93aba06c60 ---
 Name: SyntheticDataSetDeepFitTE20
 Public: False
 Created: 2024-10-08T09:55:07
 Comment (abbr.): 
 PI: Casper Cappelen
 b0: 127.740000
 Peak Search PPM low/high: -15.000000 / 15.000000
 Blend tol. PPM/phase: 0.001500 / 50.000000
 Pulse seq.: 43be13ae-de9a-40a1-9a2d-c872d8bjs100 (PRESS Ideal)
 0 User static parameters: 
 22 Metabolites: 2-hydroxyglutarate, GPC-pcholine2, NAAG-truncated, alanine, choline-trimethyl, creatine, ethanolamine, gaba, glucose-beta, glutamate, glutamine, glutathione-glutamate, glutathione-glycine-cysteine, glycine, lactate, myo-inositol, n-acetylaspartate, phosphocreatine, phosphorylcholine-trimethyl, phosphorylethanolamine, pyruvate, taurine
 22 Simulations: (not shown)
 
 Metabolite Formatting Information
 ---------------------------------------------------------------------------
 Name=2-hydroxyglutarate Abbr=2HG Scale=1.0 Shift=0.0 PPM Start=-3.1207465171441986 PPM End=12.528391440425866
 Name=GPC-pcholine2 Abbr=GPC Scale=1.0 Shift=0.0 PPM Start=-3.1207465171441986 PPM End=12.528391440425866
 Name=NAAG-truncated Abbr=NAAG Scale=1.0 Shift=0.0 PPM Start=-3.1207465171441986 PPM End=12.528391440425866
 Name=alanine Abbr=Ala Scale=1.0 Shift=0.0 PPM Start=-3.1207465171441986 PPM End=12.528391440425866
 Name=choline-trimethyl Abbr=Cho Scale=1.0 Shift=0.0 PPM Start=-3.1207465171441986 PPM End=12.528391440425866
 Name=creatine Abbr=Cr Scale=1.0 Shift=0.0 PPM Start=-3.1207465171441986 PPM End=12.528391440425866
 Name=ethanolamine Abbr=ETA Scale=1.0 Shift=0.0 PPM Start=-3.1207465171441986 PPM End=12.528391440425866
 Name=gaba Abbr=GABA Scale=1.0 Shift=0.0 PPM Start=-3.1207465171441986 PPM End=12.528391440425866
 Name=glucose-beta Abbr=Glc Scale=1.0 Shift=0.0 PPM Start=-3.1207465171441986 PPM End=12.528391440425866
 Name=glutamate Abbr=Glu Scale=1.0 Shift=0.0 PPM Start=-3.1207465171441986 PPM End=12.528391440425866
 Name=glutamine Abbr=Gln Scale=1.0 Shift=0.0 PPM Start=-3.1207465171441986 PPM End=12.528391440425866
 Name=glycine Abbr=Gly Scale=1.0 Shift=0.0 PPM Start=-3.1207465171441986 PPM End=12.528391440425866
 Name=lactate Abbr=Lac Scale=1.0 Shift=0.0 PPM Start=-3.1207465171441986 PPM End=12.528391440425866
 Name=myo-inositol Abbr=mI Scale=1.0 Shift=0.0 PPM Start=-3.1207465171441986 PPM End=12.528391440425866
 Name=n-acetylaspartate Abbr=NAA Scale=1.0 Shift=0.0 PPM Start=-3.1207465171441986 PPM End=12.528391440425866
 Name=phosphocreatine Abbr=PCr Scale=1.0 Shift=0.0 PPM Start=-3.1207465171441986 PPM End=12.528391440425866
 Name=phosphorylcholine-trimethyl Abbr=PCho Scale=1.0 Shift=0.0 PPM Start=-3.1207465171441986 PPM End=12.528391440425866
 Name=phosphorylethanolamine Abbr=PE Scale=1.0 Shift=0.0 PPM Start=-3.1207465171441986 PPM End=12.528391440425866
 Name=pyruvate Abbr=Pyr Scale=1.0 Shift=0.0 PPM Start=-3.1207465171441986 PPM End=12.528391440425866
 Name=taurine Abbr=Tau Scale=1.0 Shift=0.0 PPM Start=-3.1207465171441986 PPM End=12.528391440425866
 Name=glutathione-glutamate+glutathione-glycine-cysteine Abbr=GSH Scale=1.0 Shift=0.0 PPM Start=-3.1207565171441987 PPM End=12.528
   Mixture of [metab*scale] = glutathione-glutamate*1.000000 + glutathione-glycine-cysteine*1.000000
 
 ===========================================================================
 This LCModel format RAW file was created using the 
 Vespa-Simulation spectral simulation program using 
 the following settings and parameters 
 
 Sweep Width = 2000.0 Hz 
 Vector Size = 2048 points 
 Apodization = 14.0 Hz Lorentzian broadening
 B0 Field    = 127.74 MHz 
 Ref Singlet = False
  
 $NMID ID='PCho'
 FMTDAT='(2E16.6)'
 VOLUME=1.0
 TRAMP=1.0
 $END
    9.000000E+00    1.561251E-16
    7.272660E+00    4.962163E+00
    3.140946E+00    8.019583E+00
   -1.883490E+00    8.212178E+00
   -6.049796E+00    5.597574E+00
   -7.974907E+00    1.187696E+00
   -7.099147E+00   -3.437235E+00
   -3.841504E+00   -6.691663E+00
    5.852449E-01   -7.525373E+00
    4.622029E+00   -5.758392E+00
    6.909837E+00   -2.104838E+00
    6.744159E+00    2.108889E+00
    4.287034E+00    5.422540E+00
    4.745094E-01    6.745473E+00
   -3.335690E+00    5.712456E+00
   -5.845045E+00    2.776964E+00
   -6.254304E+00   -9.787082E-01
   -4.514322E+00   -4.239189E+00
   -1.310659E+00   -5.914546E+00
    2.201887E+00   -5.502019E+00
    4.812834E+00   -3.232019E+00
    5.671101E+00    4.185733E-02
    4.559586E+00    3.160596E+00
    1.941878E+00    5.067927E+00
   -1.225031E+00    5.165914E+00
   -3.838151E+00    3.499013E+00
   -5.030693E+00    7.112866E-01
   -4.457337E+00   -2.198910E+00
   -2.389481E+00   -4.234441E+00
    4.037585E-01   -4.739185E+00
    2.939225E+00   -3.606995E+00
    4.363832E+00   -1.294169E+00
    4.239827E+00    1.360253E+00
    2.676136E+00    3.436802E+00
    2.675973E-01    4.252681E+00
   -2.128460E+00    3.584032E+00
   -3.696003E+00    1.722656E+00
   -3.936425E+00   -6.457935E-01
   -2.824878E+00   -2.692183E+00
   -7.983417E-01   -3.732988E+00
    1.413047E+00   -3.456704E+00
    3.047719E+00   -2.014162E+00
    3.573292E+00    5.275048E-02
    2.858383E+00    2.012787E+00
    1.200051E+00    3.202446E+00
   -7.959679E-01    3.249454E+00
   -2.434778E+00    2.186955E+00
   -3.173257E+00    4.248228E-01
   -2.798441E+00   -1.406313E+00
   -1.485990E+00   -2.679318E+00
    2.764791E-01   -2.984387E+00
    1.868847E+00   -2.259178E+00
    2.755772E+00   -7.951701E-01
    2.665290E+00    8.768259E-01
    1.670294E+00    2.178063E+00
    1.488593E-01    2.680953E+00
   -1.357875E+00    2.248470E+00
   -2.336953E+00    1.068278E+00
   -2.477428E+00   -4.252192E-01
   -1.767486E+00   -1.709555E+00
   -4.857079E-01   -2.355949E+00
    9.064842E-01   -2.171568E+00
    1.929795E+00   -1.255008E+00
    2.251366E+00    4.987366E-02
    1.791761E+00    1.281609E+00
    7.412991E-01    2.023509E+00
   -5.166556E-01    2.043856E+00
   -1.544388E+00    1.366715E+00
   -2.001521E+00    2.528903E-01
   -1.756826E+00   -8.991518E-01
   -9.238829E-01   -1.695216E+00
    1.881086E-01   -1.879241E+00
    1.188099E+00   -1.414875E+00
    1.740168E+00   -4.882499E-01
    1.675377E+00    5.649149E-01
    1.042350E+00    1.380221E+00
    8.134272E-02    1.690020E+00
   -8.660745E-01    1.410502E+00
   -1.477539E+00    6.622666E-01
   -1.559099E+00   -2.794947E-01
   -1.105789E+00   -1.085442E+00
   -2.950879E-01   -1.486797E+00
    5.813050E-01   -1.364134E+00
    1.221838E+00   -7.818417E-01
    1.418404E+00    4.188731E-02
    1.123074E+00    8.158954E-01
    4.576713E-01    1.278515E+00
   -3.350528E-01    1.285478E+00
   -9.795040E-01    8.540218E-01
   -1.262378E+00    1.500519E-01
   -1.102821E+00   -5.747693E-01
   -5.742825E-01   -1.072486E+00
    1.272631E-01   -1.183278E+00
    7.552465E-01   -8.860030E-01
    1.098788E+00   -2.995716E-01
    1.053067E+00    3.637501E-01
    6.503950E-01    8.745517E-01
    4.337362E-02    1.065298E+00
   -5.522867E-01    8.847647E-01
   -9.341076E-01    4.104438E-01
   -9.811248E-01   -1.833601E-01
   -6.917197E-01   -6.891180E-01
   -1.790332E-01   -9.382350E-01
    3.726316E-01   -8.568701E-01
    7.735538E-01   -4.869572E-01
    8.935736E-01    3.298464E-02
    7.038828E-01    5.193322E-01
    2.824484E-01    8.077474E-01
   -2.171196E-01    8.084457E-01
   -6.211755E-01    5.335870E-01
   -7.961499E-01    8.868550E-02
   -6.922418E-01   -3.672992E-01
   -3.568661E-01   -6.784757E-01
    8.568938E-02   -7.450186E-01
    4.800144E-01   -5.547811E-01
    6.937675E-01   -1.836420E-01
    6.618711E-01    2.341000E-01
    4.057650E-01    5.540967E-01
    2.238087E-02    6.714700E-01
   -3.521346E-01    5.549340E-01
   -5.905092E-01    2.542896E-01
   -6.173766E-01   -1.200980E-01
   -4.326662E-01   -4.374428E-01
   -1.084369E-01   -5.920376E-01
    2.387849E-01   -5.382016E-01
    4.896961E-01   -3.032483E-01
    5.629065E-01    2.495196E-02
    4.411100E-01    3.305256E-01
    1.742097E-01    5.102969E-01
   -1.405542E-01    5.084149E-01
   -3.938959E-01    3.333389E-01
   -5.020840E-01    5.218347E-02
   -4.344903E-01   -2.346599E-01
   -2.217168E-01   -4.291808E-01
    5.746953E-02   -4.690531E-01
    3.050552E-01   -3.473411E-01
    4.380148E-01   -1.124811E-01
    4.159721E-01    1.505870E-01
    2.531070E-01    3.510340E-01
    1.098275E-02    4.232122E-01
   -2.244664E-01    3.480402E-01
   -3.732789E-01    1.574794E-01
   -3.884626E-01   -7.855586E-02
   -2.705923E-01   -2.776603E-01
   -6.558807E-02   -3.735582E-01
    1.529644E-01   -3.380234E-01
    3.099775E-01   -1.888082E-01
    3.545841E-01    1.833829E-02
    2.764175E-01    2.103212E-01
    1.074023E-01    3.223589E-01
   -9.094643E-02    3.197053E-01
   -2.497514E-01    2.082141E-01
   -3.166168E-01    3.054907E-02
   -2.726918E-01   -1.498833E-01
   -1.377146E-01   -2.714667E-01
    3.839226E-02   -2.952938E-01
    1.938360E-01   -2.174500E-01
    2.765256E-01   -6.884170E-02
    2.614082E-01    9.683557E-02
    1.578573E-01    2.223704E-01
    4.954052E-03    2.667265E-01
   -1.430584E-01    2.182649E-01
   -2.359431E-01    9.749684E-02
   -2.444139E-01   -5.130476E-02
   -1.692161E-01   -1.762173E-01
   -3.957965E-02   -2.356943E-01
    9.795690E-02   -2.122854E-01
    1.962011E-01   -1.175320E-01
    2.233462E-01    1.320292E-02
    1.731996E-01    1.338124E-01
    6.617881E-02    2.036246E-01
   -5.879288E-02    2.010310E-01
   -1.583486E-01    1.300310E-01
   -1.996493E-01    1.777852E-02
