 Vespa-Simulation Mixed Metabolite Output
 This file was generated by Vespa-Simulation. You can learn about and download Vespa here:
https://github.com/vespa-mrs/vespa/tree/main/vespa

 
 Output Path/Filename = /home/stud/casperc/bhome/Project1(DeepFit)/DeepFit-data-generation/DeepFitData_TE_20_lw14_2048p
 Output Loop Values = (1,1,1)  ( Loop 1 = 10, Loop 2 = 10, Loop3 Inactive )
 Output Comment
 ---------------------------------------------------------------------------
 
 
 Experiment Information
 ---------------------------------------------------------------------------
 --- Experiment 18b0168e-f5f0-4bd4-8d52-da93aba06c60 ---
 Name: SyntheticDataSetDeepFitTE20
 Public: False
 Created: 2024-10-08T09:55:07
 Comment (abbr.): 
 PI: Casper Cappelen
 b0: 127.740000
 Peak Search PPM low/high: -15.000000 / 15.000000
 Blend tol. PPM/phase: 0.001500 / 50.000000
 Pulse seq.: 43be13ae-de9a-40a1-9a2d-c872d8bjs100 (PRESS Ideal)
 0 User static parameters: 
 22 Metabolites: 2-hydroxyglutarate, GPC-pcholine2, NAAG-truncated, alanine, choline-trimethyl, creatine, ethanolamine, gaba, glucose-beta, glutamate, glutamine, glutathione-glutamate, glutathione-glycine-cysteine, glycine, lactate, myo-inositol, n-acetylaspartate, phosphocreatine, phosphorylcholine-trimethyl, phosphorylethanolamine, pyruvate, taurine
 22 Simulations: (not shown)
 
 Metabolite Formatting Information
 ---------------------------------------------------------------------------
 Name=2-hydroxyglutarate Abbr=2HG Scale=1.0 Shift=0.0 PPM Start=-3.1207465171441986 PPM End=12.528391440425866
 Name=GPC-pcholine2 Abbr=GPC Scale=1.0 Shift=0.0 PPM Start=-3.1207465171441986 PPM End=12.528391440425866
 Name=NAAG-truncated Abbr=NAAG Scale=1.0 Shift=0.0 PPM Start=-3.1207465171441986 PPM End=12.528391440425866
 Name=alanine Abbr=Ala Scale=1.0 Shift=0.0 PPM Start=-3.1207465171441986 PPM End=12.528391440425866
 Name=choline-trimethyl Abbr=Cho Scale=1.0 Shift=0.0 PPM Start=-3.1207465171441986 PPM End=12.528391440425866
 Name=creatine Abbr=Cr Scale=1.0 Shift=0.0 PPM Start=-3.1207465171441986 PPM End=12.528391440425866
 Name=ethanolamine Abbr=ETA Scale=1.0 Shift=0.0 PPM Start=-3.1207465171441986 PPM End=12.528391440425866
 Name=gaba Abbr=GABA Scale=1.0 Shift=0.0 PPM Start=-3.1207465171441986 PPM End=12.528391440425866
 Name=glucose-beta Abbr=Glc Scale=1.0 Shift=0.0 PPM Start=-3.1207465171441986 PPM End=12.528391440425866
 Name=glutamate Abbr=Glu Scale=1.0 Shift=0.0 PPM Start=-3.1207465171441986 PPM End=12.528391440425866
 Name=glutamine Abbr=Gln Scale=1.0 Shift=0.0 PPM Start=-3.1207465171441986 PPM End=12.528391440425866
 Name=glycine Abbr=Gly Scale=1.0 Shift=0.0 PPM Start=-3.1207465171441986 PPM End=12.528391440425866
 Name=lactate Abbr=Lac Scale=1.0 Shift=0.0 PPM Start=-3.1207465171441986 PPM End=12.528391440425866
 Name=myo-inositol Abbr=mI Scale=1.0 Shift=0.0 PPM Start=-3.1207465171441986 PPM End=12.528391440425866
 Name=n-acetylaspartate Abbr=NAA Scale=1.0 Shift=0.0 PPM Start=-3.1207465171441986 PPM End=12.528391440425866
 Name=phosphocreatine Abbr=PCr Scale=1.0 Shift=0.0 PPM Start=-3.1207465171441986 PPM End=12.528391440425866
 Name=phosphorylcholine-trimethyl Abbr=PCho Scale=1.0 Shift=0.0 PPM Start=-3.1207465171441986 PPM End=12.528391440425866
 Name=phosphorylethanolamine Abbr=PE Scale=1.0 Shift=0.0 PPM Start=-3.1207465171441986 PPM End=12.528391440425866
 Name=pyruvate Abbr=Pyr Scale=1.0 Shift=0.0 PPM Start=-3.1207465171441986 PPM End=12.528391440425866
 Name=taurine Abbr=Tau Scale=1.0 Shift=0.0 PPM Start=-3.1207465171441986 PPM End=12.528391440425866
 Name=glutathione-glutamate+glutathione-glycine-cysteine Abbr=GSH Scale=1.0 Shift=0.0 PPM Start=-3.1207565171441987 PPM End=12.528
   Mixture of [metab*scale] = glutathione-glutamate*1.000000 + glutathione-glycine-cysteine*1.000000
 
 ===========================================================================
 This LCModel format RAW file was created using the 
 Vespa-Simulation spectral simulation program using 
 the following settings and parameters 
 
 Sweep Width = 2000.0 Hz 
 Vector Size = 2048 points 
 Apodization = 14.0 Hz Lorentzian broadening
 B0 Field    = 127.74 MHz 
 Ref Singlet = False
  
 This data has been FFTd to be in the FREQUENCY domain
 
 $NMID ID='PCho'
 FMTDAT='(2E16.6)'
 VOLUME=1.0
 TRAMP=1.0
 $END
    5.067990E+00    1.455924E+01
    5.073673E+00    1.463869E+01
    5.079443E+00    1.471894E+01
    5.085301E+00    1.479999E+01
    5.091246E+00    1.488187E+01
    5.097283E+00    1.496458E+01
    5.103415E+00    1.504815E+01
    5.109650E+00    1.513258E+01
    5.115994E+00    1.521789E+01
    5.122454E+00    1.530409E+01
    5.129033E+00    1.539119E+01
    5.135733E+00    1.547920E+01
    5.142551E+00    1.556812E+01
    5.149483E+00    1.565796E+01
    5.156523E+00    1.574875E+01
    5.163667E+00    1.584050E+01
    5.170914E+00    1.593324E+01
    5.178267E+00    1.602699E+01
    5.185731E+00    1.612177E+01
    5.193312E+00    1.621760E+01
    5.201016E+00    1.631450E+01
    5.208847E+00    1.641249E+01
    5.216810E+00    1.651158E+01
    5.224912E+00    1.661181E+01
    5.233158E+00    1.671318E+01
    5.241555E+00    1.681572E+01
    5.250110E+00    1.691944E+01
    5.258827E+00    1.702437E+01
    5.267709E+00    1.713051E+01
    5.276758E+00    1.723790E+01
    5.285976E+00    1.734654E+01
    5.295364E+00    1.745647E+01
    5.304924E+00    1.756770E+01
    5.314662E+00    1.768027E+01
    5.324582E+00    1.779420E+01
    5.334687E+00    1.790951E+01
    5.344983E+00    1.802623E+01
    5.355473E+00    1.814438E+01
    5.366161E+00    1.826400E+01
    5.377053E+00    1.838511E+01
    5.388155E+00    1.850775E+01
    5.399475E+00    1.863194E+01
    5.411021E+00    1.875771E+01
    5.422798E+00    1.888509E+01
    5.434813E+00    1.901411E+01
    5.447071E+00    1.914480E+01
    5.459575E+00    1.927720E+01
    5.472331E+00    1.941133E+01
    5.485343E+00    1.954724E+01
    5.498618E+00    1.968497E+01
    5.512164E+00    1.982454E+01
    5.525992E+00    1.996601E+01
    5.540107E+00    2.010940E+01
    5.554517E+00    2.025476E+01
    5.569228E+00    2.040214E+01
    5.584251E+00    2.055157E+01
    5.599595E+00    2.070310E+01
    5.615273E+00    2.085678E+01
    5.631299E+00    2.101265E+01
    5.647683E+00    2.117077E+01
    5.664436E+00    2.133116E+01
    5.681567E+00    2.149389E+01
    5.699083E+00    2.165900E+01
    5.716997E+00    2.182656E+01
    5.735318E+00    2.199661E+01
    5.754062E+00    2.216921E+01
    5.773241E+00    2.234442E+01
    5.792868E+00    2.252231E+01
    5.812956E+00    2.270292E+01
    5.833518E+00    2.288634E+01
    5.854570E+00    2.307262E+01
    5.876128E+00    2.326184E+01
    5.898209E+00    2.345406E+01
    5.920833E+00    2.364937E+01
    5.944020E+00    2.384783E+01
    5.967789E+00    2.404952E+01
    5.992160E+00    2.425452E+01
    6.017152E+00    2.446291E+01
    6.042784E+00    2.467478E+01
    6.069075E+00    2.489021E+01
    6.096049E+00    2.510929E+01
    6.123729E+00    2.533213E+01
    6.152140E+00    2.555882E+01
    6.181308E+00    2.578946E+01
    6.211260E+00    2.602416E+01
    6.242024E+00    2.626302E+01
    6.273629E+00    2.650617E+01
    6.306108E+00    2.675371E+01
    6.339494E+00    2.700577E+01
    6.373824E+00    2.726249E+01
    6.409137E+00    2.752398E+01
    6.445473E+00    2.779037E+01
    6.482871E+00    2.806181E+01
    6.521370E+00    2.833844E+01
    6.561012E+00    2.862041E+01
    6.601837E+00    2.890786E+01
    6.643891E+00    2.920098E+01
    6.687222E+00    2.949992E+01
    6.731883E+00    2.980487E+01
    6.777930E+00    3.011602E+01
    6.825422E+00    3.043355E+01
    6.874426E+00    3.075767E+01
    6.925008E+00    3.108859E+01
    6.977241E+00    3.142651E+01
    7.031196E+00    3.177165E+01
    7.086948E+00    3.212425E+01
    7.144570E+00    3.248455E+01
    7.204144E+00    3.285280E+01
    7.265756E+00    3.322928E+01
    7.329498E+00    3.361427E+01
    7.395473E+00    3.400805E+01
    7.463790E+00    3.441095E+01
    7.534561E+00    3.482327E+01
    7.607909E+00    3.524535E+01
    7.683959E+00    3.567753E+01
    7.762845E+00    3.612019E+01
    7.844709E+00    3.657370E+01
    7.929702E+00    3.703847E+01
    8.017983E+00    3.751492E+01
    8.109723E+00    3.800349E+01
    8.205103E+00    3.850465E+01
    8.304318E+00    3.901889E+01
    8.407576E+00    3.954674E+01
    8.515100E+00    4.008872E+01
    8.627127E+00    4.064542E+01
    8.743912E+00    4.121744E+01
    8.865728E+00    4.180542E+01
    8.992869E+00    4.241002E+01
    9.125648E+00    4.303195E+01
    9.264402E+00    4.367197E+01
    9.409493E+00    4.433086E+01
    9.561310E+00    4.500947E+01
    9.720274E+00    4.570868E+01
    9.886838E+00    4.642944E+01
    1.006149E+01    4.717273E+01
    1.024476E+01    4.793963E+01
    1.043722E+01    4.873127E+01
    1.063950E+01    4.954883E+01
    1.085226E+01    5.039360E+01
    1.107625E+01    5.126695E+01
    1.131225E+01    5.217031E+01
    1.156114E+01    5.310524E+01
    1.182388E+01    5.407339E+01
    1.210150E+01    5.507653E+01
    1.239515E+01    5.611655E+01
    1.270606E+01    5.719547E+01
    1.303560E+01    5.831547E+01
    1.338530E+01    5.947889E+01
    1.375680E+01    6.068823E+01
    1.415194E+01    6.194620E+01
    1.457277E+01    6.325570E+01
    1.502153E+01    6.461986E+01
    1.550072E+01    6.604207E+01
    1.601313E+01    6.752599E+01
    1.656186E+01    6.907557E+01
    1.715041E+01    7.069510E+01
    1.778266E+01    7.238923E+01
    1.846301E+01    7.416299E+01
    1.919639E+01    7.602186E+01
    1.998839E+01    7.797179E+01
    2.084532E+01    8.001926E+01
    2.177437E+01    8.217134E+01
    2.278372E+01    8.443571E+01
    2.388273E+01    8.682076E+01
    2.508215E+01    8.933565E+01
    2.639433E+01    9.199034E+01
    2.783354E+01    9.479571E+01
    2.941632E+01    9.776360E+01
    3.116193E+01    1.009069E+02
    3.309285E+01    1.042395E+02
    3.523548E+01    1.077765E+02
    3.762089E+01    1.115341E+02
