 Vespa-Simulation Mixed Metabolite Output
 This file was generated by Vespa-Simulation. You can learn about and download Vespa here:
https://github.com/vespa-mrs/vespa/tree/main/vespa

 
 Output Path/Filename = /home/stud/casperc/bhome/Project1(DeepFit)/DeepFit-data-generation/DeepFitData_TE_20_lw14_2048p
 Output Loop Values = (1,1,1)  ( Loop 1 = 10, Loop 2 = 10, Loop3 Inactive )
 Output Comment
 ---------------------------------------------------------------------------
 
 
 Experiment Information
 ---------------------------------------------------------------------------
 --- Experiment 18b0168e-f5f0-4bd4-8d52-da93aba06c60 ---
 Name: SyntheticDataSetDeepFitTE20
 Public: False
 Created: 2024-10-08T09:55:07
 Comment (abbr.): 
 PI: Casper Cappelen
 b0: 127.740000
 Peak Search PPM low/high: -15.000000 / 15.000000
 Blend tol. PPM/phase: 0.001500 / 50.000000
 Pulse seq.: 43be13ae-de9a-40a1-9a2d-c872d8bjs100 (PRESS Ideal)
 0 User static parameters: 
 22 Metabolites: 2-hydroxyglutarate, GPC-pcholine2, NAAG-truncated, alanine, choline-trimethyl, creatine, ethanolamine, gaba, glucose-beta, glutamate, glutamine, glutathione-glutamate, glutathione-glycine-cysteine, glycine, lactate, myo-inositol, n-acetylaspartate, phosphocreatine, phosphorylcholine-trimethyl, phosphorylethanolamine, pyruvate, taurine
 22 Simulations: (not shown)
 
 Metabolite Formatting Information
 ---------------------------------------------------------------------------
 Name=2-hydroxyglutarate Abbr=2HG Scale=1.0 Shift=0.0 PPM Start=-3.1207465171441986 PPM End=12.528391440425866
 Name=GPC-pcholine2 Abbr=GPC Scale=1.0 Shift=0.0 PPM Start=-3.1207465171441986 PPM End=12.528391440425866
 Name=NAAG-truncated Abbr=NAAG Scale=1.0 Shift=0.0 PPM Start=-3.1207465171441986 PPM End=12.528391440425866
 Name=alanine Abbr=Ala Scale=1.0 Shift=0.0 PPM Start=-3.1207465171441986 PPM End=12.528391440425866
 Name=choline-trimethyl Abbr=Cho Scale=1.0 Shift=0.0 PPM Start=-3.1207465171441986 PPM End=12.528391440425866
 Name=creatine Abbr=Cr Scale=1.0 Shift=0.0 PPM Start=-3.1207465171441986 PPM End=12.528391440425866
 Name=ethanolamine Abbr=ETA Scale=1.0 Shift=0.0 PPM Start=-3.1207465171441986 PPM End=12.528391440425866
 Name=gaba Abbr=GABA Scale=1.0 Shift=0.0 PPM Start=-3.1207465171441986 PPM End=12.528391440425866
 Name=glucose-beta Abbr=Glc Scale=1.0 Shift=0.0 PPM Start=-3.1207465171441986 PPM End=12.528391440425866
 Name=glutamate Abbr=Glu Scale=1.0 Shift=0.0 PPM Start=-3.1207465171441986 PPM End=12.528391440425866
 Name=glutamine Abbr=Gln Scale=1.0 Shift=0.0 PPM Start=-3.1207465171441986 PPM End=12.528391440425866
 Name=glycine Abbr=Gly Scale=1.0 Shift=0.0 PPM Start=-3.1207465171441986 PPM End=12.528391440425866
 Name=lactate Abbr=Lac Scale=1.0 Shift=0.0 PPM Start=-3.1207465171441986 PPM End=12.528391440425866
 Name=myo-inositol Abbr=mI Scale=1.0 Shift=0.0 PPM Start=-3.1207465171441986 PPM End=12.528391440425866
 Name=n-acetylaspartate Abbr=NAA Scale=1.0 Shift=0.0 PPM Start=-3.1207465171441986 PPM End=12.528391440425866
 Name=phosphocreatine Abbr=PCr Scale=1.0 Shift=0.0 PPM Start=-3.1207465171441986 PPM End=12.528391440425866
 Name=phosphorylcholine-trimethyl Abbr=PCho Scale=1.0 Shift=0.0 PPM Start=-3.1207465171441986 PPM End=12.528391440425866
 Name=phosphorylethanolamine Abbr=PE Scale=1.0 Shift=0.0 PPM Start=-3.1207465171441986 PPM End=12.528391440425866
 Name=pyruvate Abbr=Pyr Scale=1.0 Shift=0.0 PPM Start=-3.1207465171441986 PPM End=12.528391440425866
 Name=taurine Abbr=Tau Scale=1.0 Shift=0.0 PPM Start=-3.1207465171441986 PPM End=12.528391440425866
 Name=glutathione-glutamate+glutathione-glycine-cysteine Abbr=GSH Scale=1.0 Shift=0.0 PPM Start=-3.1207565171441987 PPM End=12.528
   Mixture of [metab*scale] = glutathione-glutamate*1.000000 + glutathione-glycine-cysteine*1.000000
 
 ===========================================================================
 This LCModel format RAW file was created using the 
 Vespa-Simulation spectral simulation program using 
 the following settings and parameters 
 
 Sweep Width = 2000.0 Hz 
 Vector Size = 2048 points 
 Apodization = 14.0 Hz Lorentzian broadening
 B0 Field    = 127.74 MHz 
 Ref Singlet = False
  
 $NMID ID='PCr'
 FMTDAT='(2E16.6)'
 VOLUME=1.0
 TRAMP=1.0
 $END
    7.000000E+00    1.634841E-16
    5.369305E+00    9.039610E-01
    1.802301E+00    2.115454E+00
   -1.609521E+00    3.302433E+00
   -3.244835E+00    3.619192E+00
   -2.877324E+00    2.544824E+00
   -1.444909E+00    5.434669E-01
   -8.398372E-02   -1.153610E+00
    6.382329E-01   -1.499370E+00
    7.470176E-01   -4.659355E-01
    3.959049E-01    9.772216E-01
   -4.255864E-01    1.686935E+00
   -1.688782E+00    1.211550E+00
   -2.951136E+00   -2.759471E-02
   -3.380490E+00   -1.274654E+00
   -2.334427E+00   -2.088870E+00
   -1.402026E-02   -2.498286E+00
    2.472277E+00   -2.633683E+00
    3.808875E+00   -2.358118E+00
    3.403871E+00   -1.362208E+00
    1.775946E+00    3.545086E-01
    8.768563E-02    2.164397E+00
   -7.480820E-01    3.092887E+00
   -6.326232E-01    2.549408E+00
   -1.158920E-01    8.731530E-01
    2.270132E-01   -8.317894E-01
    2.531051E-01   -1.481452E+00
    1.754475E-01   -7.789130E-01
    1.506116E-01    6.497409E-01
    2.920055E-02    1.804845E+00
   -4.590214E-01    2.037816E+00
   -1.303794E+00    1.369702E+00
   -2.057124E+00    2.566361E-01
   -2.135631E+00   -8.545391E-01
   -1.325504E+00   -1.743753E+00
   -1.154138E-02   -2.302121E+00
    1.098892E+00   -2.352400E+00
    1.513679E+00   -1.704494E+00
    1.277860E+00   -4.299819E-01
    8.220051E-01    9.673897E-01
    5.257564E-01    1.762386E+00
    4.253785E-01    1.510286E+00
    3.112749E-01    4.250017E-01
    5.886888E-02   -7.251855E-01
   -1.809135E-01   -1.158245E+00
   -1.364640E-01   -6.270151E-01
    2.506008E-01    4.578667E-01
    6.732282E-01    1.393311E+00
    6.749557E-01    1.698164E+00
    5.541728E-02    1.360565E+00
   -9.106102E-01    6.883533E-01
   -1.652343E+00   -1.329116E-02
   -1.730231E+00   -6.166818E-01
   -1.143676E+00   -1.093110E+00
   -2.764720E-01   -1.353898E+00
    4.313926E-01   -1.242001E+00
    7.766183E-01   -7.069746E-01
    8.217946E-01    3.590176E-02
    7.091802E-01    5.751573E-01
    4.952068E-01    5.913617E-01
    1.724710E-01    1.208120E-01
   -1.866216E-01   -4.531880E-01
   -3.721316E-01   -6.917086E-01
   -1.782175E-01   -4.293424E-01
    3.710851E-01    1.340708E-01
    9.485217E-01    6.353401E-01
    1.119157E+00    8.425670E-01
    6.692803E-01    7.830476E-01
   -2.077782E-01    6.262346E-01
   -1.034473E+00    4.756207E-01
   -1.383454E+00    2.863403E-01
   -1.152214E+00   -2.626470E-02
   -5.747082E-01   -4.246482E-01
   -3.110332E-04   -7.207665E-01
    3.475588E-01   -7.247088E-01
    4.465932E-01   -4.280777E-01
    3.796548E-01   -3.780082E-02
    2.135953E-01    1.815242E-01
   -1.864094E-02    1.160104E-01
   -2.478734E-01   -1.240987E-01
   -3.337942E-01   -3.212991E-01
   -1.472464E-01   -3.378256E-01
    2.899578E-01   -2.009260E-01
    7.555278E-01   -2.773550E-02
    9.498062E-01    1.115592E-01
    7.122535E-01    2.456731E-01
    1.521772E-01    4.250828E-01
   -4.226312E-01    6.118453E-01
   -7.239946E-01    6.683855E-01
   -6.699962E-01    4.739531E-01
   -3.989893E-01    6.093240E-02
   -1.245668E-01   -3.682249E-01
    2.653729E-02   -5.760580E-01
    6.181498E-02   -4.673236E-01
    4.808650E-02   -1.569994E-01
    1.743195E-02    1.258155E-01
   -4.711009E-02    2.101731E-01
   -1.478798E-01    8.742224E-02
   -2.202482E-01   -1.231179E-01
   -1.658173E-01   -2.910199E-01
    5.116116E-02   -3.593866E-01
    3.419684E-01   -3.368690E-01
    5.390444E-01   -2.375946E-01
    5.198968E-01   -5.348955E-02
    3.019779E-01    2.075064E-01
    2.468862E-02    4.693602E-01
   -1.635276E-01    5.993200E-01
   -2.113302E-01    4.974676E-01
   -1.757230E-01    1.918748E-01
   -1.425319E-01   -1.544245E-01
   -1.415029E-01   -3.465972E-01
   -1.357203E-01   -2.940635E-01
   -8.435814E-02   -6.949433E-02
   -4.916233E-03    1.546585E-01
    3.350807E-02    2.347354E-01
   -1.961199E-02    1.443553E-01
   -1.346851E-01   -3.705139E-02
   -2.142608E-01   -2.054778E-01
   -1.723904E-01   -3.025566E-01
   -9.218626E-03   -3.228187E-01
    1.868595E-01   -2.759786E-01
    3.094043E-01   -1.612019E-01
    3.116343E-01    1.580207E-02
    2.258641E-01    2.092715E-01
    1.176591E-01    3.345002E-01
    2.705044E-02    3.201744E-01
   -4.726366E-02    1.707927E-01
   -1.156146E-01   -2.182642E-02
   -1.618638E-01   -1.379836E-01
   -1.493716E-01   -1.158266E-01
   -6.487966E-02    7.299309E-03
    4.772864E-02    1.308561E-01
    1.065628E-01    1.706035E-01
    5.504155E-02    1.139855E-01
   -8.541511E-02    1.108546E-02
   -2.232471E-01   -7.938138E-02
   -2.624441E-01   -1.342850E-01
   -1.722385E-01   -1.644967E-01
   -4.487250E-03   -1.809291E-01
    1.505367E-01   -1.711703E-01
    2.281055E-01   -1.132651E-01
    2.205670E-01   -1.000261E-02
    1.603578E-01    9.627105E-02
    8.239101E-02    1.492405E-01
    4.575130E-03    1.238850E-01
   -6.251948E-02    4.899277E-02
   -9.947618E-02   -1.544353E-02
   -8.288679E-02   -2.624652E-02
   -1.114808E-02    1.220221E-02
    7.727486E-02    5.972174E-02
    1.198003E-01    7.977545E-02
    7.436009E-02    6.811985E-02
   -4.370041E-02    4.631177E-02
   -1.666521E-01    3.163721E-02
   -2.207381E-01    1.706614E-02
   -1.772360E-01   -1.808673E-02
   -6.797456E-02   -7.896701E-02
    4.377681E-02   -1.393089E-01
    1.092494E-01   -1.577813E-01
    1.193904E-01   -1.132748E-01
    9.513515E-02   -2.633222E-02
    6.024112E-02    5.384347E-02
    2.508552E-02    8.600646E-02
   -7.755791E-03    6.528880E-02
   -2.995200E-02    2.067106E-02
   -2.641965E-02   -1.256080E-02
    9.203517E-03   -1.873117E-02
    5.963752E-02   -5.050788E-03
    8.908063E-02    1.473796E-02
    6.877922E-02    3.559304E-02
    1.840894E-03    5.961365E-02
   -7.580138E-02    8.257176E-02
   -1.208866E-01    8.724257E-02
   -1.137351E-01    5.499874E-02
