 Vespa-Simulation Mixed Metabolite Output
 This file was generated by Vespa-Simulation. You can learn about and download Vespa here:
https://github.com/vespa-mrs/vespa/tree/main/vespa

 
 Output Path/Filename = /home/stud/casperc/bhome/Project1(DeepFit)/DeepFit-data-generation/DeepFitData_TE_20_lw14_2048p
 Output Loop Values = (1,1,1)  ( Loop 1 = 10, Loop 2 = 10, Loop3 Inactive )
 Output Comment
 ---------------------------------------------------------------------------
 
 
 Experiment Information
 ---------------------------------------------------------------------------
 --- Experiment 18b0168e-f5f0-4bd4-8d52-da93aba06c60 ---
 Name: SyntheticDataSetDeepFitTE20
 Public: False
 Created: 2024-10-08T09:55:07
 Comment (abbr.): 
 PI: Casper Cappelen
 b0: 127.740000
 Peak Search PPM low/high: -15.000000 / 15.000000
 Blend tol. PPM/phase: 0.001500 / 50.000000
 Pulse seq.: 43be13ae-de9a-40a1-9a2d-c872d8bjs100 (PRESS Ideal)
 0 User static parameters: 
 22 Metabolites: 2-hydroxyglutarate, GPC-pcholine2, NAAG-truncated, alanine, choline-trimethyl, creatine, ethanolamine, gaba, glucose-beta, glutamate, glutamine, glutathione-glutamate, glutathione-glycine-cysteine, glycine, lactate, myo-inositol, n-acetylaspartate, phosphocreatine, phosphorylcholine-trimethyl, phosphorylethanolamine, pyruvate, taurine
 22 Simulations: (not shown)
 
 Metabolite Formatting Information
 ---------------------------------------------------------------------------
 Name=2-hydroxyglutarate Abbr=2HG Scale=1.0 Shift=0.0 PPM Start=-3.1207465171441986 PPM End=12.528391440425866
 Name=GPC-pcholine2 Abbr=GPC Scale=1.0 Shift=0.0 PPM Start=-3.1207465171441986 PPM End=12.528391440425866
 Name=NAAG-truncated Abbr=NAAG Scale=1.0 Shift=0.0 PPM Start=-3.1207465171441986 PPM End=12.528391440425866
 Name=alanine Abbr=Ala Scale=1.0 Shift=0.0 PPM Start=-3.1207465171441986 PPM End=12.528391440425866
 Name=choline-trimethyl Abbr=Cho Scale=1.0 Shift=0.0 PPM Start=-3.1207465171441986 PPM End=12.528391440425866
 Name=creatine Abbr=Cr Scale=1.0 Shift=0.0 PPM Start=-3.1207465171441986 PPM End=12.528391440425866
 Name=ethanolamine Abbr=ETA Scale=1.0 Shift=0.0 PPM Start=-3.1207465171441986 PPM End=12.528391440425866
 Name=gaba Abbr=GABA Scale=1.0 Shift=0.0 PPM Start=-3.1207465171441986 PPM End=12.528391440425866
 Name=glucose-beta Abbr=Glc Scale=1.0 Shift=0.0 PPM Start=-3.1207465171441986 PPM End=12.528391440425866
 Name=glutamate Abbr=Glu Scale=1.0 Shift=0.0 PPM Start=-3.1207465171441986 PPM End=12.528391440425866
 Name=glutamine Abbr=Gln Scale=1.0 Shift=0.0 PPM Start=-3.1207465171441986 PPM End=12.528391440425866
 Name=glycine Abbr=Gly Scale=1.0 Shift=0.0 PPM Start=-3.1207465171441986 PPM End=12.528391440425866
 Name=lactate Abbr=Lac Scale=1.0 Shift=0.0 PPM Start=-3.1207465171441986 PPM End=12.528391440425866
 Name=myo-inositol Abbr=mI Scale=1.0 Shift=0.0 PPM Start=-3.1207465171441986 PPM End=12.528391440425866
 Name=n-acetylaspartate Abbr=NAA Scale=1.0 Shift=0.0 PPM Start=-3.1207465171441986 PPM End=12.528391440425866
 Name=phosphocreatine Abbr=PCr Scale=1.0 Shift=0.0 PPM Start=-3.1207465171441986 PPM End=12.528391440425866
 Name=phosphorylcholine-trimethyl Abbr=PCho Scale=1.0 Shift=0.0 PPM Start=-3.1207465171441986 PPM End=12.528391440425866
 Name=phosphorylethanolamine Abbr=PE Scale=1.0 Shift=0.0 PPM Start=-3.1207465171441986 PPM End=12.528391440425866
 Name=pyruvate Abbr=Pyr Scale=1.0 Shift=0.0 PPM Start=-3.1207465171441986 PPM End=12.528391440425866
 Name=taurine Abbr=Tau Scale=1.0 Shift=0.0 PPM Start=-3.1207465171441986 PPM End=12.528391440425866
 Name=glutathione-glutamate+glutathione-glycine-cysteine Abbr=GSH Scale=1.0 Shift=0.0 PPM Start=-3.1207565171441987 PPM End=12.528
   Mixture of [metab*scale] = glutathione-glutamate*1.000000 + glutathione-glycine-cysteine*1.000000
 
 ===========================================================================
 This LCModel format RAW file was created using the 
 Vespa-Simulation spectral simulation program using 
 the following settings and parameters 
 
 Sweep Width = 2000.0 Hz 
 Vector Size = 2048 points 
 Apodization = 14.0 Hz Lorentzian broadening
 B0 Field    = 127.74 MHz 
 Ref Singlet = False
  
 This data has been FFTd to be in the FREQUENCY domain
 
 $NMID ID='PCr'
 FMTDAT='(2E16.6)'
 VOLUME=1.0
 TRAMP=1.0
 $END
    4.176842E+00    8.556951E+00
    4.186946E+00    8.651354E+00
    4.197351E+00    8.747161E+00
    4.208069E+00    8.844413E+00
    4.219112E+00    8.943155E+00
    4.230493E+00    9.043432E+00
    4.242226E+00    9.145291E+00
    4.254327E+00    9.248781E+00
    4.266812E+00    9.353951E+00
    4.279696E+00    9.460852E+00
    4.292997E+00    9.569538E+00
    4.306731E+00    9.680064E+00
    4.320916E+00    9.792490E+00
    4.335569E+00    9.906877E+00
    4.350711E+00    1.002329E+01
    4.366365E+00    1.014180E+01
    4.382554E+00    1.026247E+01
    4.399304E+00    1.038539E+01
    4.416642E+00    1.051061E+01
    4.434594E+00    1.063823E+01
    4.453189E+00    1.076833E+01
    4.472458E+00    1.090098E+01
    4.492435E+00    1.103630E+01
    4.513153E+00    1.117436E+01
    4.534651E+00    1.131528E+01
    4.556968E+00    1.145915E+01
    4.580147E+00    1.160609E+01
    4.604233E+00    1.175622E+01
    4.629275E+00    1.190965E+01
    4.655324E+00    1.206651E+01
    4.682433E+00    1.222694E+01
    4.710664E+00    1.239108E+01
    4.740078E+00    1.255909E+01
    4.770746E+00    1.273111E+01
    4.802739E+00    1.290731E+01
    4.836135E+00    1.308788E+01
    4.871018E+00    1.327299E+01
    4.907476E+00    1.346284E+01
    4.945605E+00    1.365764E+01
    4.985511E+00    1.385761E+01
    5.027306E+00    1.406299E+01
    5.071114E+00    1.427402E+01
    5.117066E+00    1.449097E+01
    5.165306E+00    1.471411E+01
    5.215990E+00    1.494375E+01
    5.269288E+00    1.518021E+01
    5.325388E+00    1.542383E+01
    5.384492E+00    1.567496E+01
    5.446823E+00    1.593400E+01
    5.512625E+00    1.620135E+01
    5.582161E+00    1.647745E+01
    5.655723E+00    1.676277E+01
    5.733628E+00    1.705783E+01
    5.816226E+00    1.736315E+01
    5.903906E+00    1.767933E+01
    5.997094E+00    1.800700E+01
    6.096266E+00    1.834682E+01
    6.201945E+00    1.869953E+01
    6.314716E+00    1.906592E+01
    6.435230E+00    1.944683E+01
    6.564214E+00    1.984318E+01
    6.702482E+00    2.025598E+01
    6.850948E+00    2.068630E+01
    7.010642E+00    2.113531E+01
    7.182723E+00    2.160428E+01
    7.368504E+00    2.209461E+01
    7.569472E+00    2.260779E+01
    7.787321E+00    2.314546E+01
    8.023982E+00    2.370941E+01
    8.281665E+00    2.430159E+01
    8.562910E+00    2.492413E+01
    8.870644E+00    2.557933E+01
    9.208253E+00    2.626972E+01
    9.579667E+00    2.699804E+01
    9.989471E+00    2.776727E+01
    1.044303E+01    2.858064E+01
    1.094664E+01    2.944160E+01
    1.150774E+01    3.035387E+01
    1.213515E+01    3.132138E+01
    1.283936E+01    3.234822E+01
    1.363291E+01    3.343856E+01
    1.453087E+01    3.459649E+01
    1.555140E+01    3.582581E+01
    1.671647E+01    3.712959E+01
    1.805277E+01    3.850966E+01
    1.959278E+01    3.996564E+01
    2.137606E+01    4.149359E+01
    2.345077E+01    4.308394E+01
    2.587527E+01    4.471835E+01
    2.871962E+01    4.636507E+01
    3.206649E+01    4.797207E+01
    3.601032E+01    4.945720E+01
    4.065292E+01    5.069455E+01
    4.609193E+01    5.149689E+01
    5.239651E+01    5.159587E+01
    5.956319E+01    5.062652E+01
    6.744552E+01    4.813168E+01
    7.566264E+01    4.361426E+01
    8.352073E+01    3.667090E+01
    9.002525E+01    2.721328E+01
    9.407761E+01    1.569760E+01
    9.485729E+01    3.182255E+00
    9.219535E+01   -8.932759E+00
    8.665954E+01   -1.938747E+01
    7.927917E+01   -2.744989E+01
    7.113181E+01   -3.299125E+01
    6.305452E+01   -3.630692E+01
    5.555954E+01   -3.787484E+01
    4.888491E+01   -3.818031E+01
    4.308693E+01   -3.763153E+01
    3.812153E+01   -3.653820E+01
    3.389968E+01   -3.512090E+01
    3.031939E+01   -3.353017E+01
    2.728212E+01   -3.186550E+01
    2.469978E+01   -3.019075E+01
    2.249681E+01   -2.854561E+01
    2.060987E+01   -2.695361E+01
    1.898653E+01   -2.542769E+01
    1.758363E+01   -2.397392E+01
    1.636578E+01   -2.259402E+01
    1.530388E+01   -2.128695E+01
    1.437404E+01   -2.005006E+01
    1.355653E+01   -1.887977E+01
    1.283502E+01   -1.777204E+01
    1.219595E+01   -1.672264E+01
    1.162800E+01   -1.572740E+01
    1.112168E+01   -1.478224E+01
    1.066901E+01   -1.388330E+01
    1.026324E+01   -1.302695E+01
    9.898632E+00   -1.220978E+01
    9.570314E+00   -1.142864E+01
    9.274107E+00   -1.068062E+01
    9.006429E+00   -9.963004E+00
    8.764195E+00   -9.273315E+00
    8.544739E+00   -8.609252E+00
    8.345753E+00   -7.968699E+00
    8.165230E+00   -7.349703E+00
    8.001419E+00   -6.750457E+00
    7.852792E+00   -6.169291E+00
    7.718011E+00   -5.604652E+00
    7.595900E+00   -5.055100E+00
    7.485431E+00   -4.519291E+00
    7.385697E+00   -3.995970E+00
    7.295904E+00   -3.483963E+00
    7.215351E+00   -2.982164E+00
    7.143424E+00   -2.489537E+00
    7.079583E+00   -2.005097E+00
    7.023355E+00   -1.527913E+00
    6.974327E+00   -1.057095E+00
    6.932142E+00   -5.917965E-01
    6.896494E+00   -1.312020E-01
    6.867118E+00    3.254712E-01
    6.843792E+00    7.789809E-01
    6.826332E+00    1.230064E+00
    6.814589E+00    1.679441E+00
    6.808450E+00    2.127817E+00
    6.807831E+00    2.575890E+00
    6.812682E+00    3.024349E+00
    6.822983E+00    3.473879E+00
    6.838741E+00    3.925167E+00
    6.859996E+00    4.378902E+00
    6.886816E+00    4.835781E+00
    6.919301E+00    5.296510E+00
    6.957579E+00    5.761810E+00
    7.001816E+00    6.232416E+00
    7.052208E+00    6.709087E+00
    7.108991E+00    7.192603E+00
    7.172438E+00    7.683774E+00
    7.242863E+00    8.183440E+00
    7.320625E+00    8.692480E+00
    7.406131E+00    9.211817E+00
    7.499847E+00    9.742419E+00
