 Vespa-Simulation Mixed Metabolite Output
 This file was generated by Vespa-Simulation. You can learn about and download Vespa here:
https://github.com/vespa-mrs/vespa/tree/main/vespa

 
 Output Path/Filename = /home/stud/casperc/bhome/Project1(DeepFit)/DeepFit-data-generation/DeepFitData_TE_20_lw14_2048p
 Output Loop Values = (1,1,1)  ( Loop 1 = 10, Loop 2 = 10, Loop3 Inactive )
 Output Comment
 ---------------------------------------------------------------------------
 
 
 Experiment Information
 ---------------------------------------------------------------------------
 --- Experiment 18b0168e-f5f0-4bd4-8d52-da93aba06c60 ---
 Name: SyntheticDataSetDeepFitTE20
 Public: False
 Created: 2024-10-08T09:55:07
 Comment (abbr.): 
 PI: Casper Cappelen
 b0: 127.740000
 Peak Search PPM low/high: -15.000000 / 15.000000
 Blend tol. PPM/phase: 0.001500 / 50.000000
 Pulse seq.: 43be13ae-de9a-40a1-9a2d-c872d8bjs100 (PRESS Ideal)
 0 User static parameters: 
 22 Metabolites: 2-hydroxyglutarate, GPC-pcholine2, NAAG-truncated, alanine, choline-trimethyl, creatine, ethanolamine, gaba, glucose-beta, glutamate, glutamine, glutathione-glutamate, glutathione-glycine-cysteine, glycine, lactate, myo-inositol, n-acetylaspartate, phosphocreatine, phosphorylcholine-trimethyl, phosphorylethanolamine, pyruvate, taurine
 22 Simulations: (not shown)
 
 Metabolite Formatting Information
 ---------------------------------------------------------------------------
 Name=2-hydroxyglutarate Abbr=2HG Scale=1.0 Shift=0.0 PPM Start=-3.1207465171441986 PPM End=12.528391440425866
 Name=GPC-pcholine2 Abbr=GPC Scale=1.0 Shift=0.0 PPM Start=-3.1207465171441986 PPM End=12.528391440425866
 Name=NAAG-truncated Abbr=NAAG Scale=1.0 Shift=0.0 PPM Start=-3.1207465171441986 PPM End=12.528391440425866
 Name=alanine Abbr=Ala Scale=1.0 Shift=0.0 PPM Start=-3.1207465171441986 PPM End=12.528391440425866
 Name=choline-trimethyl Abbr=Cho Scale=1.0 Shift=0.0 PPM Start=-3.1207465171441986 PPM End=12.528391440425866
 Name=creatine Abbr=Cr Scale=1.0 Shift=0.0 PPM Start=-3.1207465171441986 PPM End=12.528391440425866
 Name=ethanolamine Abbr=ETA Scale=1.0 Shift=0.0 PPM Start=-3.1207465171441986 PPM End=12.528391440425866
 Name=gaba Abbr=GABA Scale=1.0 Shift=0.0 PPM Start=-3.1207465171441986 PPM End=12.528391440425866
 Name=glucose-beta Abbr=Glc Scale=1.0 Shift=0.0 PPM Start=-3.1207465171441986 PPM End=12.528391440425866
 Name=glutamate Abbr=Glu Scale=1.0 Shift=0.0 PPM Start=-3.1207465171441986 PPM End=12.528391440425866
 Name=glutamine Abbr=Gln Scale=1.0 Shift=0.0 PPM Start=-3.1207465171441986 PPM End=12.528391440425866
 Name=glycine Abbr=Gly Scale=1.0 Shift=0.0 PPM Start=-3.1207465171441986 PPM End=12.528391440425866
 Name=lactate Abbr=Lac Scale=1.0 Shift=0.0 PPM Start=-3.1207465171441986 PPM End=12.528391440425866
 Name=myo-inositol Abbr=mI Scale=1.0 Shift=0.0 PPM Start=-3.1207465171441986 PPM End=12.528391440425866
 Name=n-acetylaspartate Abbr=NAA Scale=1.0 Shift=0.0 PPM Start=-3.1207465171441986 PPM End=12.528391440425866
 Name=phosphocreatine Abbr=PCr Scale=1.0 Shift=0.0 PPM Start=-3.1207465171441986 PPM End=12.528391440425866
 Name=phosphorylcholine-trimethyl Abbr=PCho Scale=1.0 Shift=0.0 PPM Start=-3.1207465171441986 PPM End=12.528391440425866
 Name=phosphorylethanolamine Abbr=PE Scale=1.0 Shift=0.0 PPM Start=-3.1207465171441986 PPM End=12.528391440425866
 Name=pyruvate Abbr=Pyr Scale=1.0 Shift=0.0 PPM Start=-3.1207465171441986 PPM End=12.528391440425866
 Name=taurine Abbr=Tau Scale=1.0 Shift=0.0 PPM Start=-3.1207465171441986 PPM End=12.528391440425866
 Name=glutathione-glutamate+glutathione-glycine-cysteine Abbr=GSH Scale=1.0 Shift=0.0 PPM Start=-3.1207565171441987 PPM End=12.528
   Mixture of [metab*scale] = glutathione-glutamate*1.000000 + glutathione-glycine-cysteine*1.000000
 
 ===========================================================================
 This LCModel format RAW file was created using the 
 Vespa-Simulation spectral simulation program using 
 the following settings and parameters 
 
 Sweep Width = 2000.0 Hz 
 Vector Size = 2048 points 
 Apodization = 14.0 Hz Lorentzian broadening
 B0 Field    = 127.74 MHz 
 Ref Singlet = False
  
 $NMID ID='PE'
 FMTDAT='(2E16.6)'
 VOLUME=1.0
 TRAMP=1.0
 $END
    3.627676E+00   -1.360233E-03
    3.172391E+00    1.497448E+00
    2.104536E+00    2.558129E+00
    7.461572E-01    2.957254E+00
   -5.261601E-01    2.678842E+00
   -1.401548E+00    1.903192E+00
   -1.725677E+00    9.332397E-01
   -1.533973E+00    8.668264E-02
   -1.020096E+00   -4.081919E-01
   -4.545169E-01   -4.785303E-01
   -8.389470E-02   -2.152877E-01
   -4.655007E-02    1.749744E-01
   -3.316594E-01    4.546965E-01
   -7.933711E-01    4.451140E-01
   -1.211682E+00    9.005408E-02
   -1.376473E+00   -5.267768E-01
   -1.164522E+00   -1.214576E+00
   -5.833537E-01   -1.744483E+00
    2.315877E-01   -1.929689E+00
    1.063432E+00   -1.688674E+00
    1.686216E+00   -1.071004E+00
    1.937811E+00   -2.387223E-01
    1.768910E+00    5.883966E-01
    1.253136E+00    1.203723E+00
    5.570169E-01    1.476553E+00
   -1.179606E-01    1.386634E+00
   -6.004585E-01    1.020868E+00
   -7.997187E-01    5.358017E-01
   -7.257483E-01    1.006308E-01
   -4.747968E-01   -1.590286E-01
   -1.875277E-01   -1.979985E-01
    4.055110E-03   -5.810799E-02
    2.223203E-02    1.554027E-01
   -1.331816E-01    3.174932E-01
   -3.903296E-01    3.306518E-01
   -6.356944E-01    1.594871E-01
   -7.574313E-01   -1.585057E-01
   -6.859051E-01   -5.282427E-01
   -4.178032E-01   -8.316629E-01
   -1.638071E-02   -9.689242E-01
    4.108206E-01   -8.916584E-01
    7.482997E-01   -6.176642E-01
    9.097587E-01   -2.230634E-01
    8.639921E-01    1.842682E-01
    6.413762E-01    4.999118E-01
    3.201844E-01    6.548954E-01
   -1.441387E-03    6.339048E-01
   -2.377593E-01    4.749778E-01
   -3.409075E-01    2.519884E-01
   -3.118428E-01    4.715415E-02
   -1.943220E-01   -7.666656E-02
   -5.525979E-02   -9.458185E-02
    4.079661E-02   -2.383095E-02
    5.402431E-02    8.676797E-02
   -1.876385E-02    1.772712E-01
   -1.458768E-01    1.992408E-01
   -2.745334E-01    1.326721E-01
   -3.510425E-01   -8.139749E-03
   -3.400815E-01   -1.810459E-01
   -2.364975E-01   -3.317259E-01
   -6.617651E-02   -4.126714E-01
    1.236718E-01   -3.988773E-01
    2.807584E-01   -2.951113E-01
    3.647448E-01   -1.329373E-01
    3.592181E-01    4.081036E-02
    2.751330E-01    1.797080E-01
    1.451311E-01    2.521216E-01
    1.140677E-02    2.495651E-01
   -8.843760E-02    1.869515E-01
   -1.326927E-01    9.523809E-02
   -1.205695E-01    9.596684E-03
   -6.983195E-02   -4.253520E-02
   -8.582597E-03   -4.961461E-02
    3.556411E-02   -1.796724E-02
    4.499623E-02    3.248437E-02
    1.726304E-02    7.669083E-02
   -3.547931E-02    9.390049E-02
   -9.202738E-02    7.473813E-02
   -1.303183E-01    2.374489E-02
   -1.352733E-01   -4.308590E-02
   -1.036297E-01   -1.045095E-01
   -4.437782E-02   -1.415619E-01
    2.494362E-02   -1.437235E-01
    8.452824E-02   -1.118244E-01
    1.188314E-01   -5.694352E-02
    1.211171E-01    3.928172E-03
    9.476392E-02    5.375912E-02
    5.116481E-02    8.078082E-02
    5.261043E-03    8.155143E-02
   -2.954893E-02    6.098433E-02
   -4.542201E-02    2.969794E-02
   -4.178182E-02   -1.643869E-04
   -2.444332E-02   -1.908044E-02
   -2.749750E-03   -2.287666E-02
    1.407503E-02   -1.332755E-02
    2.004695E-02    3.326179E-03
    1.402126E-02    1.916636E-02
   -5.644224E-04    2.758780E-02
   -1.748569E-02    2.544633E-02
   -3.025572E-02    1.373785E-02
   -3.441107E-02   -3.229940E-03
   -2.882118E-02   -1.969823E-02
   -1.569140E-02   -3.057583E-02
    5.683796E-04   -3.306010E-02
    1.505959E-02   -2.726668E-02
    2.404067E-02   -1.580367E-02
    2.594720E-02   -2.575942E-03
    2.153042E-02    8.645147E-03
    1.321677E-02    1.537308E-02
    4.030669E-03    1.692588E-02
   -3.471726E-03    1.425115E-02
   -7.884855E-03    9.245346E-03
   -9.097206E-03    3.910881E-03
   -7.953290E-03   -3.159392E-04
   -5.668130E-03   -2.857402E-03
   -3.274790E-03   -3.883059E-03
   -1.316878E-03   -3.941785E-03
    1.472045E-04   -3.554313E-03
    1.306584E-03   -2.961063E-03
    2.300270E-03   -2.113576E-03
    3.030513E-03   -8.656094E-04
    3.182285E-03    7.743634E-04
    2.426686E-03    2.486849E-03
    6.898233E-04    3.683569E-03
   -1.668660E-03    3.742982E-03
   -3.882676E-03    2.332600E-03
   -5.028781E-03   -3.406691E-04
   -4.408748E-03   -3.489854E-03
   -1.901125E-03   -5.967663E-03
    1.881847E-03   -6.682364E-03
    5.727763E-03   -5.051677E-03
    8.219088E-03   -1.306257E-03
    8.260547E-03    3.497899E-03
    5.532632E-03    7.791251E-03
    6.873468E-04    1.002973E-02
   -4.809833E-03    9.268137E-03
   -9.154862E-03    5.549982E-03
   -1.083575E-02   -4.437282E-05
   -9.190890E-03   -5.730926E-03
   -4.682876E-03   -9.622034E-03
    1.221619E-03   -1.039404E-02
    6.538929E-03   -7.772656E-03
    9.455020E-03   -2.657248E-03
    8.968939E-03    3.170808E-03
    5.261001E-03    7.659695E-03
   -3.536257E-04    9.207401E-03
   -5.870426E-03    7.229797E-03
   -9.292861E-03    2.380711E-03
   -9.332798E-03   -3.663817E-03
   -5.868205E-03   -8.781067E-03
    4.150032E-06   -1.113656E-02
    6.339572E-03   -9.821383E-03
    1.101327E-02   -5.167624E-03
    1.244309E-02    1.363305E-03
    1.012753E-02    7.681317E-03
    4.805747E-03    1.177883E-02
   -1.807453E-03    1.240484E-02
   -7.614757E-03    9.470234E-03
   -1.084776E-02    4.049775E-03
   -1.065006E-02   -2.011157E-03
   -7.334286E-03   -6.744541E-03
   -2.233211E-03   -8.724858E-03
    2.792251E-03   -7.533986E-03
    6.010745E-03   -3.863008E-03
    6.411696E-03    7.699732E-04
    4.028574E-03    4.577808E-03
   -1.086787E-04    6.137272E-03
   -4.366401E-03    4.876642E-03
   -7.094113E-03    1.253022E-03
   -7.203711E-03   -3.429867E-03
   -4.537452E-03   -7.492039E-03
    9.344527E-05   -9.464192E-03
    5.202614E-03   -8.586910E-03
    9.143518E-03   -5.055118E-03
