 Vespa-Simulation Mixed Metabolite Output
 This file was generated by Vespa-Simulation. You can learn about and download Vespa here:
https://github.com/vespa-mrs/vespa/tree/main/vespa

 
 Output Path/Filename = /home/stud/casperc/bhome/Project1(DeepFit)/DeepFit-data-generation/DeepFitData_TE_20_lw14_2048p
 Output Loop Values = (1,1,1)  ( Loop 1 = 10, Loop 2 = 10, Loop3 Inactive )
 Output Comment
 ---------------------------------------------------------------------------
 
 
 Experiment Information
 ---------------------------------------------------------------------------
 --- Experiment 18b0168e-f5f0-4bd4-8d52-da93aba06c60 ---
 Name: SyntheticDataSetDeepFitTE20
 Public: False
 Created: 2024-10-08T09:55:07
 Comment (abbr.): 
 PI: Casper Cappelen
 b0: 127.740000
 Peak Search PPM low/high: -15.000000 / 15.000000
 Blend tol. PPM/phase: 0.001500 / 50.000000
 Pulse seq.: 43be13ae-de9a-40a1-9a2d-c872d8bjs100 (PRESS Ideal)
 0 User static parameters: 
 22 Metabolites: 2-hydroxyglutarate, GPC-pcholine2, NAAG-truncated, alanine, choline-trimethyl, creatine, ethanolamine, gaba, glucose-beta, glutamate, glutamine, glutathione-glutamate, glutathione-glycine-cysteine, glycine, lactate, myo-inositol, n-acetylaspartate, phosphocreatine, phosphorylcholine-trimethyl, phosphorylethanolamine, pyruvate, taurine
 22 Simulations: (not shown)
 
 Metabolite Formatting Information
 ---------------------------------------------------------------------------
 Name=2-hydroxyglutarate Abbr=2HG Scale=1.0 Shift=0.0 PPM Start=-3.1207465171441986 PPM End=12.528391440425866
 Name=GPC-pcholine2 Abbr=GPC Scale=1.0 Shift=0.0 PPM Start=-3.1207465171441986 PPM End=12.528391440425866
 Name=NAAG-truncated Abbr=NAAG Scale=1.0 Shift=0.0 PPM Start=-3.1207465171441986 PPM End=12.528391440425866
 Name=alanine Abbr=Ala Scale=1.0 Shift=0.0 PPM Start=-3.1207465171441986 PPM End=12.528391440425866
 Name=choline-trimethyl Abbr=Cho Scale=1.0 Shift=0.0 PPM Start=-3.1207465171441986 PPM End=12.528391440425866
 Name=creatine Abbr=Cr Scale=1.0 Shift=0.0 PPM Start=-3.1207465171441986 PPM End=12.528391440425866
 Name=ethanolamine Abbr=ETA Scale=1.0 Shift=0.0 PPM Start=-3.1207465171441986 PPM End=12.528391440425866
 Name=gaba Abbr=GABA Scale=1.0 Shift=0.0 PPM Start=-3.1207465171441986 PPM End=12.528391440425866
 Name=glucose-beta Abbr=Glc Scale=1.0 Shift=0.0 PPM Start=-3.1207465171441986 PPM End=12.528391440425866
 Name=glutamate Abbr=Glu Scale=1.0 Shift=0.0 PPM Start=-3.1207465171441986 PPM End=12.528391440425866
 Name=glutamine Abbr=Gln Scale=1.0 Shift=0.0 PPM Start=-3.1207465171441986 PPM End=12.528391440425866
 Name=glycine Abbr=Gly Scale=1.0 Shift=0.0 PPM Start=-3.1207465171441986 PPM End=12.528391440425866
 Name=lactate Abbr=Lac Scale=1.0 Shift=0.0 PPM Start=-3.1207465171441986 PPM End=12.528391440425866
 Name=myo-inositol Abbr=mI Scale=1.0 Shift=0.0 PPM Start=-3.1207465171441986 PPM End=12.528391440425866
 Name=n-acetylaspartate Abbr=NAA Scale=1.0 Shift=0.0 PPM Start=-3.1207465171441986 PPM End=12.528391440425866
 Name=phosphocreatine Abbr=PCr Scale=1.0 Shift=0.0 PPM Start=-3.1207465171441986 PPM End=12.528391440425866
 Name=phosphorylcholine-trimethyl Abbr=PCho Scale=1.0 Shift=0.0 PPM Start=-3.1207465171441986 PPM End=12.528391440425866
 Name=phosphorylethanolamine Abbr=PE Scale=1.0 Shift=0.0 PPM Start=-3.1207465171441986 PPM End=12.528391440425866
 Name=pyruvate Abbr=Pyr Scale=1.0 Shift=0.0 PPM Start=-3.1207465171441986 PPM End=12.528391440425866
 Name=taurine Abbr=Tau Scale=1.0 Shift=0.0 PPM Start=-3.1207465171441986 PPM End=12.528391440425866
 Name=glutathione-glutamate+glutathione-glycine-cysteine Abbr=GSH Scale=1.0 Shift=0.0 PPM Start=-3.1207565171441987 PPM End=12.528
   Mixture of [metab*scale] = glutathione-glutamate*1.000000 + glutathione-glycine-cysteine*1.000000
 
 ===========================================================================
 This LCModel format RAW file was created using the 
 Vespa-Simulation spectral simulation program using 
 the following settings and parameters 
 
 Sweep Width = 2000.0 Hz 
 Vector Size = 2048 points 
 Apodization = 14.0 Hz Lorentzian broadening
 B0 Field    = 127.74 MHz 
 Ref Singlet = False
  
 This data has been FFTd to be in the FREQUENCY domain
 
 $NMID ID='PE'
 FMTDAT='(2E16.6)'
 VOLUME=1.0
 TRAMP=1.0
 $END
    2.440619E+00    9.160147E+00
    2.453005E+00    9.243106E+00
    2.465785E+00    9.327639E+00
    2.478976E+00    9.413793E+00
    2.492595E+00    9.501617E+00
    2.506661E+00    9.591163E+00
    2.521196E+00    9.682485E+00
    2.536219E+00    9.775639E+00
    2.551753E+00    9.870684E+00
    2.567821E+00    9.967681E+00
    2.584450E+00    1.006669E+01
    2.601665E+00    1.016779E+01
    2.619496E+00    1.027104E+01
    2.637973E+00    1.037652E+01
    2.657128E+00    1.048430E+01
    2.676995E+00    1.059447E+01
    2.697611E+00    1.070710E+01
    2.719014E+00    1.082229E+01
    2.741245E+00    1.094012E+01
    2.764349E+00    1.106070E+01
    2.788373E+00    1.118413E+01
    2.813367E+00    1.131051E+01
    2.839385E+00    1.143996E+01
    2.866485E+00    1.157259E+01
    2.894729E+00    1.170853E+01
    2.924183E+00    1.184791E+01
    2.954919E+00    1.199087E+01
    2.987013E+00    1.213755E+01
    3.020547E+00    1.228811E+01
    3.055610E+00    1.244271E+01
    3.092299E+00    1.260152E+01
    3.130715E+00    1.276472E+01
    3.170971E+00    1.293250E+01
    3.213187E+00    1.310508E+01
    3.257495E+00    1.328265E+01
    3.304036E+00    1.346545E+01
    3.352964E+00    1.365372E+01
    3.404448E+00    1.384773E+01
    3.458669E+00    1.404774E+01
    3.515828E+00    1.425404E+01
    3.576143E+00    1.446695E+01
    3.639853E+00    1.468679E+01
    3.707219E+00    1.491392E+01
    3.778530E+00    1.514872E+01
    3.854101E+00    1.539158E+01
    3.934284E+00    1.564294E+01
    4.019463E+00    1.590326E+01
    4.110068E+00    1.617303E+01
    4.206572E+00    1.645278E+01
    4.309505E+00    1.674308E+01
    4.419458E+00    1.704452E+01
    4.537094E+00    1.735777E+01
    4.663155E+00    1.768351E+01
    4.798478E+00    1.802250E+01
    4.944009E+00    1.837552E+01
    5.100817E+00    1.874341E+01
    5.270108E+00    1.912705E+01
    5.453243E+00    1.952735E+01
    5.651741E+00    1.994529E+01
    5.867290E+00    2.038186E+01
    6.101773E+00    2.083813E+01
    6.357309E+00    2.131529E+01
    6.636344E+00    2.181464E+01
    6.941745E+00    2.233758E+01
    7.276895E+00    2.288555E+01
    7.645753E+00    2.345996E+01
    8.052915E+00    2.406216E+01
    8.503704E+00    2.469336E+01
    9.004307E+00    2.535465E+01
    9.561966E+00    2.604680E+01
    1.018521E+01    2.677017E+01
    1.088408E+01    2.752434E+01
    1.167035E+01    2.830772E+01
    1.255771E+01    2.911700E+01
    1.356189E+01    2.994643E+01
    1.470066E+01    3.078676E+01
    1.599355E+01    3.162400E+01
    1.746096E+01    3.243769E+01
    1.912247E+01    3.319910E+01
    2.099362E+01    3.386960E+01
    2.308111E+01    3.440020E+01
    2.537632E+01    3.473400E+01
    2.784946E+01    3.481337E+01
    3.044840E+01    3.459258E+01
    3.310811E+01    3.405155E+01
    3.577155E+01    3.319984E+01
    3.841012E+01    3.206041E+01
    4.102284E+01    3.063854E+01
    4.360643E+01    2.890219E+01
    4.611851E+01    2.679692E+01
    4.846748E+01    2.428708E+01
    5.053954E+01    2.138990E+01
    5.224211E+01    1.817616E+01
    5.353129E+01    1.473732E+01
    5.440179E+01    1.114452E+01
    5.484644E+01    7.435459E+00
    5.482423E+01    3.646069E+00
    5.427628E+01   -1.420045E-01
    5.318134E+01   -3.791534E+00
    5.159752E+01   -7.154828E+00
    4.965037E+01   -1.013632E+01
    4.747744E+01   -1.272283E+01
    4.517111E+01   -1.496256E+01
    4.275757E+01   -1.691107E+01
    4.022308E+01   -1.858308E+01
    3.756449E+01   -1.994397E+01
    3.482312E+01   -2.094200E+01
    3.208002E+01   -2.154940E+01
    2.942646E+01   -2.178109E+01
    2.693655E+01   -2.168759E+01
    2.465533E+01   -2.133636E+01
    2.260044E+01   -2.079539E+01
    2.076965E+01   -2.012379E+01
    1.914887E+01   -1.936860E+01
    1.771834E+01   -1.856504E+01
    1.645658E+01   -1.773835E+01
    1.534276E+01   -1.690595E+01
    1.435787E+01   -1.607936E+01
    1.348529E+01   -1.526592E+01
    1.271088E+01   -1.447015E+01
    1.202275E+01   -1.369485E+01
    1.141077E+01   -1.294190E+01
    1.086598E+01   -1.221256E+01
    1.038018E+01   -1.150738E+01
    9.945984E+00   -1.082606E+01
    9.557008E+00   -1.016743E+01
    9.208162E+00   -9.529832E+00
    8.895610E+00   -8.911603E+00
    8.616436E+00   -8.311529E+00
    8.368088E+00   -7.728984E+00
    8.147917E+00   -7.163692E+00
    7.953051E+00   -6.615294E+00
    7.780584E+00   -6.083042E+00
    7.627871E+00   -5.565764E+00
    7.492701E+00   -5.062009E+00
    7.373328E+00   -4.570232E+00
    7.268406E+00   -4.088928E+00
    7.176898E+00   -3.616689E+00
    7.097994E+00   -3.152221E+00
    7.031054E+00   -2.694339E+00
    6.975570E+00   -2.241943E+00
    6.931136E+00   -1.794004E+00
    6.897440E+00   -1.349547E+00
    6.874246E+00   -9.076355E-01
    6.861395E+00   -4.673606E-01
    6.858797E+00   -2.783045E-02
    6.866430E+00    4.118383E-01
    6.884343E+00    8.525279E-01
    6.912649E+00    1.295128E+00
    6.951535E+00    1.740543E+00
    7.001256E+00    2.189702E+00
    7.062148E+00    2.643569E+00
    7.134625E+00    3.103157E+00
    7.219195E+00    3.569539E+00
    7.316472E+00    4.043875E+00
    7.427202E+00    4.527429E+00
    7.552294E+00    5.021603E+00
    7.692884E+00    5.527963E+00
    7.850425E+00    6.048264E+00
    8.026824E+00    6.584436E+00
    8.224607E+00    7.138501E+00
    8.447086E+00    7.712368E+00
    8.698399E+00    8.307468E+00
    8.983268E+00    8.924355E+00
    9.306435E+00    9.562511E+00
    9.671993E+00    1.022070E+01
    1.008318E+01    1.089781E+01
    1.054293E+01    1.159369E+01
    1.105479E+01    1.230934E+01
    1.162384E+01    1.304655E+01
    1.225708E+01    1.380717E+01
    1.296352E+01    1.459257E+01
    1.375427E+01    1.540314E+01
