 Vespa-Simulation Mixed Metabolite Output
 This file was generated by Vespa-Simulation. You can learn about and download Vespa here:
https://github.com/vespa-mrs/vespa/tree/main/vespa

 
 Output Path/Filename = /home/stud/casperc/bhome/Project1(DeepFit)/DeepFit-data-generation/DeepFitData_TE_20_lw14_2048p
 Output Loop Values = (1,1,1)  ( Loop 1 = 10, Loop 2 = 10, Loop3 Inactive )
 Output Comment
 ---------------------------------------------------------------------------
 
 
 Experiment Information
 ---------------------------------------------------------------------------
 --- Experiment 18b0168e-f5f0-4bd4-8d52-da93aba06c60 ---
 Name: SyntheticDataSetDeepFitTE20
 Public: False
 Created: 2024-10-08T09:55:07
 Comment (abbr.): 
 PI: Casper Cappelen
 b0: 127.740000
 Peak Search PPM low/high: -15.000000 / 15.000000
 Blend tol. PPM/phase: 0.001500 / 50.000000
 Pulse seq.: 43be13ae-de9a-40a1-9a2d-c872d8bjs100 (PRESS Ideal)
 0 User static parameters: 
 22 Metabolites: 2-hydroxyglutarate, GPC-pcholine2, NAAG-truncated, alanine, choline-trimethyl, creatine, ethanolamine, gaba, glucose-beta, glutamate, glutamine, glutathione-glutamate, glutathione-glycine-cysteine, glycine, lactate, myo-inositol, n-acetylaspartate, phosphocreatine, phosphorylcholine-trimethyl, phosphorylethanolamine, pyruvate, taurine
 22 Simulations: (not shown)
 
 Metabolite Formatting Information
 ---------------------------------------------------------------------------
 Name=2-hydroxyglutarate Abbr=2HG Scale=1.0 Shift=0.0 PPM Start=-3.1207465171441986 PPM End=12.528391440425866
 Name=GPC-pcholine2 Abbr=GPC Scale=1.0 Shift=0.0 PPM Start=-3.1207465171441986 PPM End=12.528391440425866
 Name=NAAG-truncated Abbr=NAAG Scale=1.0 Shift=0.0 PPM Start=-3.1207465171441986 PPM End=12.528391440425866
 Name=alanine Abbr=Ala Scale=1.0 Shift=0.0 PPM Start=-3.1207465171441986 PPM End=12.528391440425866
 Name=choline-trimethyl Abbr=Cho Scale=1.0 Shift=0.0 PPM Start=-3.1207465171441986 PPM End=12.528391440425866
 Name=creatine Abbr=Cr Scale=1.0 Shift=0.0 PPM Start=-3.1207465171441986 PPM End=12.528391440425866
 Name=ethanolamine Abbr=ETA Scale=1.0 Shift=0.0 PPM Start=-3.1207465171441986 PPM End=12.528391440425866
 Name=gaba Abbr=GABA Scale=1.0 Shift=0.0 PPM Start=-3.1207465171441986 PPM End=12.528391440425866
 Name=glucose-beta Abbr=Glc Scale=1.0 Shift=0.0 PPM Start=-3.1207465171441986 PPM End=12.528391440425866
 Name=glutamate Abbr=Glu Scale=1.0 Shift=0.0 PPM Start=-3.1207465171441986 PPM End=12.528391440425866
 Name=glutamine Abbr=Gln Scale=1.0 Shift=0.0 PPM Start=-3.1207465171441986 PPM End=12.528391440425866
 Name=glycine Abbr=Gly Scale=1.0 Shift=0.0 PPM Start=-3.1207465171441986 PPM End=12.528391440425866
 Name=lactate Abbr=Lac Scale=1.0 Shift=0.0 PPM Start=-3.1207465171441986 PPM End=12.528391440425866
 Name=myo-inositol Abbr=mI Scale=1.0 Shift=0.0 PPM Start=-3.1207465171441986 PPM End=12.528391440425866
 Name=n-acetylaspartate Abbr=NAA Scale=1.0 Shift=0.0 PPM Start=-3.1207465171441986 PPM End=12.528391440425866
 Name=phosphocreatine Abbr=PCr Scale=1.0 Shift=0.0 PPM Start=-3.1207465171441986 PPM End=12.528391440425866
 Name=phosphorylcholine-trimethyl Abbr=PCho Scale=1.0 Shift=0.0 PPM Start=-3.1207465171441986 PPM End=12.528391440425866
 Name=phosphorylethanolamine Abbr=PE Scale=1.0 Shift=0.0 PPM Start=-3.1207465171441986 PPM End=12.528391440425866
 Name=pyruvate Abbr=Pyr Scale=1.0 Shift=0.0 PPM Start=-3.1207465171441986 PPM End=12.528391440425866
 Name=taurine Abbr=Tau Scale=1.0 Shift=0.0 PPM Start=-3.1207465171441986 PPM End=12.528391440425866
 Name=glutathione-glutamate+glutathione-glycine-cysteine Abbr=GSH Scale=1.0 Shift=0.0 PPM Start=-3.1207565171441987 PPM End=12.528
   Mixture of [metab*scale] = glutathione-glutamate*1.000000 + glutathione-glycine-cysteine*1.000000
 
 ===========================================================================
 This LCModel format RAW file was created using the 
 Vespa-Simulation spectral simulation program using 
 the following settings and parameters 
 
 Sweep Width = 2000.0 Hz 
 Vector Size = 2048 points 
 Apodization = 14.0 Hz Lorentzian broadening
 B0 Field    = 127.74 MHz 
 Ref Singlet = False
  
 $NMID ID='Pyr'
 FMTDAT='(2E16.6)'
 VOLUME=1.0
 TRAMP=1.0
 $END
    3.000000E+00   -5.204170E-18
    1.732158E+00    2.369043E+00
   -8.706651E-01    2.735705E+00
   -2.663044E+00    8.920113E-01
   -2.242008E+00   -1.587922E+00
   -4.055592E-02   -2.687315E+00
    2.098707E+00   -1.583644E+00
    2.462337E+00    7.429365E-01
    8.350347E-01    2.373422E+00
   -1.392103E+00    2.029797E+00
   -2.406673E+00    7.265771E-02
   -1.446955E+00   -1.858553E+00
    6.322141E-01   -2.215735E+00
    2.114756E+00   -7.800860E-01
    1.837049E+00    1.219573E+00
    9.761967E-02    2.154847E+00
   -1.645284E+00    1.321260E+00
   -1.993338E+00   -5.363734E-01
   -7.273749E-01   -1.883791E+00
    1.067619E+00   -1.662068E+00
    1.928932E+00   -1.165756E-01
    1.205795E+00    1.455933E+00
   -4.535142E-01    1.792829E+00
   -1.677616E+00    6.770217E-01
   -1.503263E+00   -9.338795E-01
   -1.304951E-01   -1.726307E+00
    1.287887E+00   -1.099795E+00
    1.612095E+00    3.820147E-01
    6.291304E-01    1.493611E+00
   -8.162156E-01    1.359208E+00
   -1.544613E+00    1.402370E-01
   -1.002580E+00   -1.138781E+00
    3.204102E-01   -1.449232E+00
    1.329427E+00   -5.837539E-01
    1.228566E+00    7.127823E-01
    1.464962E-01    1.381725E+00
   -1.006531E+00    9.134813E-01
   -1.302514E+00   -2.674178E-01
   -5.408868E-01   -1.182970E+00
    6.218775E-01   -1.110153E+00
    1.235730E+00   -1.499109E-01
    8.318675E-01    8.892826E-01
   -2.219326E-01    1.170371E+00
   -1.052365E+00    5.004913E-01
   -1.002853E+00   -5.420487E-01
   -1.509787E-01   -1.104907E+00
    7.853455E-01   -7.571882E-01
    1.051386E+00    1.829752E-01
    4.625561E-01    9.359109E-01
   -4.719913E-01    9.056570E-01
   -9.877027E-01    1.501831E-01
   -6.888874E-01   -6.932517E-01
    1.497015E-01   -9.442741E-01
    8.321079E-01   -4.270001E-01
    8.176380E-01    4.105626E-01
    1.478855E-01    8.827254E-01
   -6.116896E-01    6.264507E-01
   -8.478782E-01   -1.213298E-01
   -3.937464E-01   -7.396047E-01
    3.567142E-01   -7.379687E-01
    7.887208E-01   -1.444079E-01
    5.694281E-01    5.394634E-01
   -9.721877E-02    7.611460E-01
   -6.571983E-01    3.626979E-01
   -6.658703E-01   -3.095658E-01
   -1.400217E-01   -7.045611E-01
    4.755362E-01   -5.173723E-01
    6.831264E-01    7.680396E-02
    3.337723E-01    5.838002E-01
   -2.682872E-01    6.006578E-01
   -6.292346E-01    1.349450E-01
   -4.698713E-01   -4.189831E-01
    5.955224E-02   -6.129649E-01
    5.184338E-01   -3.068858E-01
    5.416765E-01    2.322102E-01
    1.293799E-01    5.618276E-01
   -3.689531E-01    4.265685E-01
   -5.498811E-01   -4.506503E-02
   -2.819029E-01   -4.602529E-01
    2.006902E-01   -4.883554E-01
    5.015181E-01   -1.234995E-01
    3.870921E-01    3.247356E-01
   -3.293996E-02    4.931769E-01
   -4.084658E-01    2.587505E-01
   -4.401714E-01   -1.731624E-01
   -1.174021E-01   -4.475775E-01
    2.856600E-01   -3.511329E-01
    4.422196E-01    2.283120E-02
    2.372992E-01    3.623969E-01
   -1.491680E-01    3.966323E-01
   -3.993414E-01    1.112116E-01
   -3.184015E-01   -2.511333E-01
    1.447785E-02   -3.964363E-01
    3.214194E-01   -2.174613E-01
    3.573111E-01    1.282517E-01
    1.050255E-01    3.562134E-01
   -2.206570E-01    2.886075E-01
   -3.553121E-01   -7.613623E-03
   -1.991463E-01   -2.849748E-01
    1.100576E-01   -3.218017E-01
    3.176672E-01   -9.889082E-02
    2.615072E-01    1.937597E-01
   -2.010682E-03    3.183816E-01
   -2.525823E-01    1.822392E-01
   -2.897476E-01   -9.423946E-02
   -9.288343E-02   -2.832188E-01
    1.700248E-01   -2.368734E-01
    2.852244E-01   -2.499722E-03
    1.666567E-01    2.237943E-01
   -8.049510E-02    2.608232E-01
   -2.524446E-01    8.702819E-02
   -2.144813E-01   -1.491037E-01
   -6.092114E-03   -2.554622E-01
    1.982128E-01   -1.523156E-01
    2.347255E-01    6.858194E-02
    8.136754E-02    2.249572E-01
   -1.306596E-01    1.941445E-01
   -2.287534E-01    8.914996E-03
   -1.391176E-01   -1.754960E-01
    5.826300E-02   -2.111870E-01
    2.004089E-01   -7.593168E-02
    1.756742E-01    1.144187E-01
    1.107590E-02    2.047905E-01
   -1.553251E-01    1.269883E-01
   -1.899639E-01   -4.933179E-02
   -7.072467E-02   -1.784949E-01
    1.001199E-01   -1.589096E-01
    1.832959E-01   -1.268788E-02
    1.158507E-01    1.374204E-01
   -4.161872E-02    1.708320E-01
   -1.589334E-01    6.576921E-02
   -1.437019E-01   -8.753366E-02
   -1.384647E-02   -1.640195E-01
    1.215292E-01   -1.056359E-01
    1.535876E-01    3.497788E-02
    6.105683E-02    1.414815E-01
   -7.647293E-02    1.299042E-01
   -1.467366E-01    1.462339E-02
   -9.627060E-02   -1.074326E-01
    2.925328E-02   -1.380529E-01
    1.259087E-01   -5.660803E-02
    1.173996E-01    6.674396E-02
    1.507741E-02    1.312454E-01
   -9.493724E-02    8.768484E-02
   -1.240598E-01   -2.433562E-02
   -5.241212E-02   -1.120192E-01
    5.819824E-02   -1.060667E-01
    1.173618E-01   -1.528241E-02
    7.983063E-02    8.385522E-02
   -2.012669E-02    1.114574E-01
   -9.963706E-02    4.845946E-02
   -9.579928E-02   -5.069666E-02
   -1.527812E-02   -1.049225E-01
    7.403457E-02   -7.264505E-02
    1.001128E-01    1.652028E-02
    4.475727E-02    8.859614E-02
   -4.412117E-02    8.649778E-02
   -9.378074E-02    1.510020E-02
   -6.607149E-02   -6.533876E-02
    1.344330E-02   -8.990182E-02
    7.875608E-02   -4.129150E-02
    7.807946E-02    3.835169E-02
    1.479571E-02    8.380172E-02
   -5.763428E-02    6.006936E-02
   -8.071279E-02   -1.083015E-02
   -3.804950E-02   -6.999084E-02
    3.329750E-02   -7.046049E-02
    7.486694E-02   -1.438789E-02
    5.458855E-02    5.081408E-02
   -8.608837E-03    7.244680E-02
   -6.218079E-02    3.503104E-02
   -6.356543E-02   -2.887708E-02
   -1.389756E-02   -6.686975E-02
    4.477892E-02   -4.958668E-02
