 Vespa-Simulation Mixed Metabolite Output
 This file was generated by Vespa-Simulation. You can learn about and download Vespa here:
https://github.com/vespa-mrs/vespa/tree/main/vespa

 
 Output Path/Filename = /home/stud/casperc/bhome/Project1(DeepFit)/DeepFit-data-generation/DeepFitData_TE_20_lw14_2048p
 Output Loop Values = (1,1,1)  ( Loop 1 = 10, Loop 2 = 10, Loop3 Inactive )
 Output Comment
 ---------------------------------------------------------------------------
 
 
 Experiment Information
 ---------------------------------------------------------------------------
 --- Experiment 18b0168e-f5f0-4bd4-8d52-da93aba06c60 ---
 Name: SyntheticDataSetDeepFitTE20
 Public: False
 Created: 2024-10-08T09:55:07
 Comment (abbr.): 
 PI: Casper Cappelen
 b0: 127.740000
 Peak Search PPM low/high: -15.000000 / 15.000000
 Blend tol. PPM/phase: 0.001500 / 50.000000
 Pulse seq.: 43be13ae-de9a-40a1-9a2d-c872d8bjs100 (PRESS Ideal)
 0 User static parameters: 
 22 Metabolites: 2-hydroxyglutarate, GPC-pcholine2, NAAG-truncated, alanine, choline-trimethyl, creatine, ethanolamine, gaba, glucose-beta, glutamate, glutamine, glutathione-glutamate, glutathione-glycine-cysteine, glycine, lactate, myo-inositol, n-acetylaspartate, phosphocreatine, phosphorylcholine-trimethyl, phosphorylethanolamine, pyruvate, taurine
 22 Simulations: (not shown)
 
 Metabolite Formatting Information
 ---------------------------------------------------------------------------
 Name=2-hydroxyglutarate Abbr=2HG Scale=1.0 Shift=0.0 PPM Start=-3.1207465171441986 PPM End=12.528391440425866
 Name=GPC-pcholine2 Abbr=GPC Scale=1.0 Shift=0.0 PPM Start=-3.1207465171441986 PPM End=12.528391440425866
 Name=NAAG-truncated Abbr=NAAG Scale=1.0 Shift=0.0 PPM Start=-3.1207465171441986 PPM End=12.528391440425866
 Name=alanine Abbr=Ala Scale=1.0 Shift=0.0 PPM Start=-3.1207465171441986 PPM End=12.528391440425866
 Name=choline-trimethyl Abbr=Cho Scale=1.0 Shift=0.0 PPM Start=-3.1207465171441986 PPM End=12.528391440425866
 Name=creatine Abbr=Cr Scale=1.0 Shift=0.0 PPM Start=-3.1207465171441986 PPM End=12.528391440425866
 Name=ethanolamine Abbr=ETA Scale=1.0 Shift=0.0 PPM Start=-3.1207465171441986 PPM End=12.528391440425866
 Name=gaba Abbr=GABA Scale=1.0 Shift=0.0 PPM Start=-3.1207465171441986 PPM End=12.528391440425866
 Name=glucose-beta Abbr=Glc Scale=1.0 Shift=0.0 PPM Start=-3.1207465171441986 PPM End=12.528391440425866
 Name=glutamate Abbr=Glu Scale=1.0 Shift=0.0 PPM Start=-3.1207465171441986 PPM End=12.528391440425866
 Name=glutamine Abbr=Gln Scale=1.0 Shift=0.0 PPM Start=-3.1207465171441986 PPM End=12.528391440425866
 Name=glycine Abbr=Gly Scale=1.0 Shift=0.0 PPM Start=-3.1207465171441986 PPM End=12.528391440425866
 Name=lactate Abbr=Lac Scale=1.0 Shift=0.0 PPM Start=-3.1207465171441986 PPM End=12.528391440425866
 Name=myo-inositol Abbr=mI Scale=1.0 Shift=0.0 PPM Start=-3.1207465171441986 PPM End=12.528391440425866
 Name=n-acetylaspartate Abbr=NAA Scale=1.0 Shift=0.0 PPM Start=-3.1207465171441986 PPM End=12.528391440425866
 Name=phosphocreatine Abbr=PCr Scale=1.0 Shift=0.0 PPM Start=-3.1207465171441986 PPM End=12.528391440425866
 Name=phosphorylcholine-trimethyl Abbr=PCho Scale=1.0 Shift=0.0 PPM Start=-3.1207465171441986 PPM End=12.528391440425866
 Name=phosphorylethanolamine Abbr=PE Scale=1.0 Shift=0.0 PPM Start=-3.1207465171441986 PPM End=12.528391440425866
 Name=pyruvate Abbr=Pyr Scale=1.0 Shift=0.0 PPM Start=-3.1207465171441986 PPM End=12.528391440425866
 Name=taurine Abbr=Tau Scale=1.0 Shift=0.0 PPM Start=-3.1207465171441986 PPM End=12.528391440425866
 Name=glutathione-glutamate+glutathione-glycine-cysteine Abbr=GSH Scale=1.0 Shift=0.0 PPM Start=-3.1207565171441987 PPM End=12.528
   Mixture of [metab*scale] = glutathione-glutamate*1.000000 + glutathione-glycine-cysteine*1.000000
 
 ===========================================================================
 This LCModel format RAW file was created using the 
 Vespa-Simulation spectral simulation program using 
 the following settings and parameters 
 
 Sweep Width = 2000.0 Hz 
 Vector Size = 2048 points 
 Apodization = 14.0 Hz Lorentzian broadening
 B0 Field    = 127.74 MHz 
 Ref Singlet = False
  
 This data has been FFTd to be in the FREQUENCY domain
 
 $NMID ID='Pyr'
 FMTDAT='(2E16.6)'
 VOLUME=1.0
 TRAMP=1.0
 $END
    1.580424E+00    2.953216E+00
    1.580919E+00    2.964473E+00
    1.581422E+00    2.975797E+00
    1.581933E+00    2.987185E+00
    1.582450E+00    2.998637E+00
    1.582970E+00    3.010155E+00
    1.583491E+00    3.021741E+00
    1.584013E+00    3.033397E+00
    1.584536E+00    3.045127E+00
    1.585061E+00    3.056931E+00
    1.585589E+00    3.068811E+00
    1.586121E+00    3.080769E+00
    1.586657E+00    3.092805E+00
    1.587199E+00    3.104922E+00
    1.587747E+00    3.117120E+00
    1.588305E+00    3.129402E+00
    1.588876E+00    3.141766E+00
    1.589462E+00    3.154208E+00
    1.590065E+00    3.166724E+00
    1.590679E+00    3.179309E+00
    1.591297E+00    3.191960E+00
    1.591910E+00    3.204680E+00
    1.592512E+00    3.217479E+00
    1.593102E+00    3.230367E+00
    1.593685E+00    3.243355E+00
    1.594269E+00    3.256447E+00
    1.594865E+00    3.269644E+00
    1.595480E+00    3.282942E+00
    1.596116E+00    3.296336E+00
    1.596775E+00    3.309818E+00
    1.597456E+00    3.323385E+00
    1.598153E+00    3.337030E+00
    1.598859E+00    3.350751E+00
    1.599565E+00    3.364550E+00
    1.600262E+00    3.378435E+00
    1.600951E+00    3.392418E+00
    1.601634E+00    3.406507E+00
    1.602320E+00    3.420709E+00
    1.603016E+00    3.435023E+00
    1.603727E+00    3.449446E+00
    1.604457E+00    3.463975E+00
    1.605202E+00    3.478606E+00
    1.605961E+00    3.493337E+00
    1.606731E+00    3.508169E+00
    1.607512E+00    3.523105E+00
    1.608301E+00    3.538146E+00
    1.609101E+00    3.553293E+00
    1.609910E+00    3.568547E+00
    1.610728E+00    3.583908E+00
    1.611551E+00    3.599378E+00
    1.612379E+00    3.614960E+00
    1.613210E+00    3.630659E+00
    1.614047E+00    3.646478E+00
    1.614891E+00    3.662422E+00
    1.615747E+00    3.678490E+00
    1.616616E+00    3.694683E+00
    1.617499E+00    3.711001E+00
    1.618398E+00    3.727443E+00
    1.619309E+00    3.744008E+00
    1.620233E+00    3.760699E+00
    1.621168E+00    3.777517E+00
    1.622116E+00    3.794465E+00
    1.623076E+00    3.811543E+00
    1.624049E+00    3.828754E+00
    1.625035E+00    3.846097E+00
    1.626032E+00    3.863574E+00
    1.627040E+00    3.881187E+00
    1.628056E+00    3.898940E+00
    1.629082E+00    3.916836E+00
    1.630119E+00    3.934879E+00
    1.631171E+00    3.953071E+00
    1.632238E+00    3.971412E+00
    1.633322E+00    3.989903E+00
    1.634422E+00    4.008543E+00
    1.635537E+00    4.027334E+00
    1.636666E+00    4.046280E+00
    1.637809E+00    4.065381E+00
    1.638968E+00    4.084642E+00
    1.640143E+00    4.104062E+00
    1.641334E+00    4.123644E+00
    1.642539E+00    4.143389E+00
    1.643759E+00    4.163299E+00
    1.644992E+00    4.183377E+00
    1.646238E+00    4.203628E+00
    1.647498E+00    4.224055E+00
    1.648773E+00    4.244661E+00
    1.650065E+00    4.265449E+00
    1.651374E+00    4.286421E+00
    1.652703E+00    4.307579E+00
    1.654050E+00    4.328925E+00
    1.655417E+00    4.350461E+00
    1.656804E+00    4.372189E+00
    1.658210E+00    4.394113E+00
    1.659637E+00    4.416235E+00
    1.661085E+00    4.438558E+00
    1.662556E+00    4.461083E+00
    1.664048E+00    4.483814E+00
    1.665562E+00    4.506753E+00
    1.667097E+00    4.529902E+00
    1.668653E+00    4.553266E+00
    1.670230E+00    4.576848E+00
    1.671830E+00    4.600652E+00
    1.673453E+00    4.624683E+00
    1.675100E+00    4.648942E+00
    1.676773E+00    4.673433E+00
    1.678471E+00    4.698160E+00
    1.680195E+00    4.723124E+00
    1.681945E+00    4.748331E+00
    1.683723E+00    4.773783E+00
    1.685528E+00    4.799485E+00
    1.687361E+00    4.825441E+00
    1.689224E+00    4.851652E+00
    1.691117E+00    4.878124E+00
    1.693039E+00    4.904859E+00
    1.694990E+00    4.931862E+00
    1.696970E+00    4.959139E+00
    1.698980E+00    4.986694E+00
    1.701022E+00    5.014535E+00
    1.703098E+00    5.042664E+00
    1.705211E+00    5.071086E+00
    1.707362E+00    5.099805E+00
    1.709554E+00    5.128823E+00
    1.711786E+00    5.158143E+00
    1.714059E+00    5.187766E+00
    1.716369E+00    5.217698E+00
    1.718715E+00    5.247944E+00
    1.721096E+00    5.278509E+00
    1.723510E+00    5.309402E+00
    1.725960E+00    5.340632E+00
    1.728445E+00    5.372204E+00
    1.730970E+00    5.404127E+00
    1.733534E+00    5.436406E+00
    1.736142E+00    5.469049E+00
    1.738792E+00    5.502060E+00
    1.741489E+00    5.535448E+00
    1.744234E+00    5.569218E+00
    1.747030E+00    5.603377E+00
    1.749878E+00    5.637931E+00
    1.752780E+00    5.672885E+00
    1.755737E+00    5.708245E+00
    1.758751E+00    5.744018E+00
    1.761820E+00    5.780211E+00
    1.764947E+00    5.816830E+00
    1.768131E+00    5.853885E+00
    1.771374E+00    5.891384E+00
    1.774677E+00    5.929335E+00
    1.778042E+00    5.967747E+00
    1.781471E+00    6.006628E+00
    1.784964E+00    6.045987E+00
    1.788523E+00    6.085833E+00
    1.792150E+00    6.126176E+00
    1.795847E+00    6.167027E+00
    1.799617E+00    6.208396E+00
    1.803461E+00    6.250291E+00
    1.807383E+00    6.292722E+00
    1.811384E+00    6.335700E+00
    1.815467E+00    6.379234E+00
    1.819631E+00    6.423335E+00
    1.823879E+00    6.468015E+00
    1.828211E+00    6.513285E+00
    1.832632E+00    6.559160E+00
    1.837143E+00    6.605651E+00
    1.841747E+00    6.652771E+00
    1.846447E+00    6.700534E+00
    1.851245E+00    6.748951E+00
    1.856143E+00    6.798039E+00
    1.861145E+00    6.847811E+00
    1.866253E+00    6.898283E+00
    1.871473E+00    6.949471E+00
    1.876808E+00    7.001389E+00
    1.882263E+00    7.054053E+00
    1.887841E+00    7.107477E+00
