 Vespa-Simulation Mixed Metabolite Output
 This file was generated by Vespa-Simulation. You can learn about and download Vespa here:
https://github.com/vespa-mrs/vespa/tree/main/vespa

 
 Output Path/Filename = /home/stud/casperc/bhome/Project1(DeepFit)/DeepFit-data-generation/DeepFitData_TE_20_lw14_2048p
 Output Loop Values = (1,1,1)  ( Loop 1 = 10, Loop 2 = 10, Loop3 Inactive )
 Output Comment
 ---------------------------------------------------------------------------
 
 
 Experiment Information
 ---------------------------------------------------------------------------
 --- Experiment 18b0168e-f5f0-4bd4-8d52-da93aba06c60 ---
 Name: SyntheticDataSetDeepFitTE20
 Public: False
 Created: 2024-10-08T09:55:07
 Comment (abbr.): 
 PI: Casper Cappelen
 b0: 127.740000
 Peak Search PPM low/high: -15.000000 / 15.000000
 Blend tol. PPM/phase: 0.001500 / 50.000000
 Pulse seq.: 43be13ae-de9a-40a1-9a2d-c872d8bjs100 (PRESS Ideal)
 0 User static parameters: 
 22 Metabolites: 2-hydroxyglutarate, GPC-pcholine2, NAAG-truncated, alanine, choline-trimethyl, creatine, ethanolamine, gaba, glucose-beta, glutamate, glutamine, glutathione-glutamate, glutathione-glycine-cysteine, glycine, lactate, myo-inositol, n-acetylaspartate, phosphocreatine, phosphorylcholine-trimethyl, phosphorylethanolamine, pyruvate, taurine
 22 Simulations: (not shown)
 
 Metabolite Formatting Information
 ---------------------------------------------------------------------------
 Name=2-hydroxyglutarate Abbr=2HG Scale=1.0 Shift=0.0 PPM Start=-3.1207465171441986 PPM End=12.528391440425866
 Name=GPC-pcholine2 Abbr=GPC Scale=1.0 Shift=0.0 PPM Start=-3.1207465171441986 PPM End=12.528391440425866
 Name=NAAG-truncated Abbr=NAAG Scale=1.0 Shift=0.0 PPM Start=-3.1207465171441986 PPM End=12.528391440425866
 Name=alanine Abbr=Ala Scale=1.0 Shift=0.0 PPM Start=-3.1207465171441986 PPM End=12.528391440425866
 Name=choline-trimethyl Abbr=Cho Scale=1.0 Shift=0.0 PPM Start=-3.1207465171441986 PPM End=12.528391440425866
 Name=creatine Abbr=Cr Scale=1.0 Shift=0.0 PPM Start=-3.1207465171441986 PPM End=12.528391440425866
 Name=ethanolamine Abbr=ETA Scale=1.0 Shift=0.0 PPM Start=-3.1207465171441986 PPM End=12.528391440425866
 Name=gaba Abbr=GABA Scale=1.0 Shift=0.0 PPM Start=-3.1207465171441986 PPM End=12.528391440425866
 Name=glucose-beta Abbr=Glc Scale=1.0 Shift=0.0 PPM Start=-3.1207465171441986 PPM End=12.528391440425866
 Name=glutamate Abbr=Glu Scale=1.0 Shift=0.0 PPM Start=-3.1207465171441986 PPM End=12.528391440425866
 Name=glutamine Abbr=Gln Scale=1.0 Shift=0.0 PPM Start=-3.1207465171441986 PPM End=12.528391440425866
 Name=glycine Abbr=Gly Scale=1.0 Shift=0.0 PPM Start=-3.1207465171441986 PPM End=12.528391440425866
 Name=lactate Abbr=Lac Scale=1.0 Shift=0.0 PPM Start=-3.1207465171441986 PPM End=12.528391440425866
 Name=myo-inositol Abbr=mI Scale=1.0 Shift=0.0 PPM Start=-3.1207465171441986 PPM End=12.528391440425866
 Name=n-acetylaspartate Abbr=NAA Scale=1.0 Shift=0.0 PPM Start=-3.1207465171441986 PPM End=12.528391440425866
 Name=phosphocreatine Abbr=PCr Scale=1.0 Shift=0.0 PPM Start=-3.1207465171441986 PPM End=12.528391440425866
 Name=phosphorylcholine-trimethyl Abbr=PCho Scale=1.0 Shift=0.0 PPM Start=-3.1207465171441986 PPM End=12.528391440425866
 Name=phosphorylethanolamine Abbr=PE Scale=1.0 Shift=0.0 PPM Start=-3.1207465171441986 PPM End=12.528391440425866
 Name=pyruvate Abbr=Pyr Scale=1.0 Shift=0.0 PPM Start=-3.1207465171441986 PPM End=12.528391440425866
 Name=taurine Abbr=Tau Scale=1.0 Shift=0.0 PPM Start=-3.1207465171441986 PPM End=12.528391440425866
 Name=glutathione-glutamate+glutathione-glycine-cysteine Abbr=GSH Scale=1.0 Shift=0.0 PPM Start=-3.1207565171441987 PPM End=12.528
   Mixture of [metab*scale] = glutathione-glutamate*1.000000 + glutathione-glycine-cysteine*1.000000
 
 ===========================================================================
 This LCModel format RAW file was created using the 
 Vespa-Simulation spectral simulation program using 
 the following settings and parameters 
 
 Sweep Width = 2000.0 Hz 
 Vector Size = 2048 points 
 Apodization = 14.0 Hz Lorentzian broadening
 B0 Field    = 127.74 MHz 
 Ref Singlet = False
  
 $NMID ID='Tau'
 FMTDAT='(2E16.6)'
 VOLUME=1.0
 TRAMP=1.0
 $END
    3.985336E+00    4.296512E-07
    3.328980E+00    2.034090E+00
    1.740314E+00    3.393850E+00
   -2.777910E-01    3.713671E+00
   -2.119350E+00    2.948966E+00
   -3.258750E+00    1.374555E+00
   -3.401795E+00   -5.117872E-01
   -2.560557E+00   -2.147174E+00
   -1.033602E+00   -3.072663E+00
    6.976447E-01   -3.062393E+00
    2.120903E+00   -2.176442E+00
    2.845178E+00   -7.259916E-01
    2.707885E+00    8.336508E-01
    1.807648E+00    2.045873E+00
    4.577864E-01    2.586604E+00
   -9.204253E-01    2.349938E+00
   -1.928908E+00    1.463298E+00
   -2.307421E+00    2.326907E-01
   -1.999045E+00   -9.606623E-01
   -1.150454E+00   -1.777861E+00
   -5.216528E-02   -2.017807E+00
    9.587144E-01   -1.664223E+00
    1.601157E+00   -8.740277E-01
    1.727239E+00    8.438784E-02
    1.352822E+00    9.201733E-01
    6.369240E-01    1.407294E+00
   -1.792409E-01    1.444155E+00
   -8.514721E-01    1.070406E+00
   -1.204489E+00    4.401354E-01
   -1.175723E+00   -2.360567E-01
   -8.207637E-01   -7.594682E-01
   -2.829783E-01   -1.000335E+00
    2.595564E-01   -9.276842E-01
    6.510958E-01   -6.059537E-01
    8.015487E-01   -1.633236E-01
    7.043072E-01    2.550764E-01
    4.264906E-01    5.330009E-01
    7.796489E-02    6.137698E-01
   -2.283278E-01    5.083770E-01
   -4.113157E-01    2.814995E-01
   -4.414743E-01    2.284031E-02
   -3.412889E-01   -1.850332E-01
   -1.689941E-01   -2.914179E-01
    6.618703E-03   -2.879232E-01
    1.306587E-01   -2.031899E-01
    1.778244E-01   -8.608231E-02
    1.551934E-01    1.520256E-02
    9.313478E-02    7.023464E-02
    2.926310E-02    7.408932E-02
   -7.702911E-03    4.425381E-02
   -8.171225E-03    9.298866E-03
    1.720161E-02   -5.351901E-03
    4.491373E-02    1.132131E-02
    5.081211E-02    5.184082E-02
    2.179406E-02    9.440740E-02
   -3.770373E-02    1.131653E-01
   -1.068824E-01    9.015242E-02
   -1.567565E-01    2.404604E-02
   -1.620286E-01   -6.779339E-02
   -1.119371E-01   -1.548117E-01
   -1.587107E-02   -2.042455E-01
    9.853544E-02   -1.935275E-01
    1.942377E-01   -1.194549E-01
    2.375130E-01   -6.832643E-04
    2.100152E-01    1.274984E-01
    1.159158E-01    2.244521E-01
   -1.853036E-02    2.577033E-01
   -1.528764E-01    2.140148E-01
   -2.453450E-01    1.043166E-01
   -2.663279E-01   -3.928251E-02
   -2.080739E-01   -1.734643E-01
   -8.737231E-02   -2.572909E-01
    5.959445E-02   -2.651303E-01
    1.885917E-01   -1.946492E-01
    2.610561E-01   -6.741231E-02
    2.559606E-01    7.799745E-02
    1.760121E-01    1.980527E-01
    4.637048E-02    2.576769E-01
   -9.347251E-02    2.406766E-01
   -2.020254E-01    1.541738E-01
   -2.483570E-01    2.576996E-02
   -2.210429E-01   -1.054438E-01
   -1.308639E-01   -2.009662E-01
   -6.736168E-03   -2.343735E-01
    1.136877E-01   -1.986698E-01
    1.955502E-01   -1.074758E-01
    2.169953E-01    9.978560E-03
    1.749636E-01    1.182711E-01
    8.508802E-02    1.865716E-01
   -2.392714E-02    1.974192E-01
   -1.194858E-01    1.510950E-01
   -1.748760E-01    6.447444E-02
   -1.767194E-01   -3.495341E-02
   -1.280007E-01   -1.177627E-01
   -4.613229E-02   -1.613008E-01
    4.311124E-02   -1.558153E-01
    1.136364E-01   -1.063681E-01
    1.466275E-01   -3.031547E-02
    1.354536E-01    4.861527E-02
    8.666436E-02    1.076726E-01
    1.709343E-02    1.315447E-01
   -5.179155E-02    1.162020E-01
   -1.004284E-01    6.915811E-02
   -1.166308E-01    6.369769E-03
   -9.846202E-02   -5.301705E-02
   -5.395029E-02   -9.241799E-02
    2.057188E-03   -1.023400E-01
    5.270019E-02   -8.247476E-02
    8.409000E-02   -4.100541E-02
    8.900245E-02    8.459067E-03
    6.834800E-02    5.123450E-02
    3.019537E-02    7.580869E-02
   -1.314476E-02    7.683114E-02
   -4.897854E-02    5.607918E-02
   -6.785570E-02    2.131698E-02
   -6.593625E-02   -1.642292E-02
   -4.558130E-02   -4.624010E-02
   -1.413116E-02   -6.042642E-02
    1.859344E-02   -5.634028E-02
    4.326893E-02   -3.670723E-02
    5.363836E-02   -8.384940E-03
    4.799801E-02    1.992232E-02
    2.927783E-02    4.025032E-02
    3.829743E-03    4.754231E-02
   -2.063477E-02    4.081560E-02
   -3.731471E-02    2.309483E-02
   -4.213513E-02    2.410460E-04
   -3.466806E-02   -2.091200E-02
   -1.796134E-02   -3.454031E-02
    2.579649E-03   -3.737483E-02
    2.088702E-02   -2.941832E-02
    3.196081E-02   -1.369763E-02
    3.319330E-02    4.799557E-03
    2.492412E-02    2.065864E-02
    1.013910E-02    2.958093E-02
   -6.545822E-03    2.950960E-02
   -2.028596E-02    2.105575E-02
   -2.738055E-02    7.154295E-03
   -2.624066E-02   -7.913985E-03
   -1.769938E-02   -1.980216E-02
   -4.632540E-03   -2.532963E-02
    8.975982E-03   -2.330769E-02
    1.922460E-02   -1.475769E-02
    2.339281E-02   -2.493824E-03
    2.064482E-02    9.775573E-03
    1.215871E-02    1.855536E-02
    6.802847E-04    2.153785E-02
   -1.034549E-02    1.819858E-02
   -1.779499E-02    9.846215E-03
   -1.973982E-02   -8.515083E-04
   -1.593234E-02   -1.070463E-02
   -7.785351E-03   -1.694183E-02
    2.127179E-03   -1.798328E-02
    1.086764E-02   -1.382403E-02
    1.600050E-02   -5.950946E-03
    1.626306E-02    3.168603E-03
    1.186199E-02    1.085102E-02
    4.330142E-03    1.498033E-02
   -3.990840E-03    1.458390E-02
   -1.067080E-02    1.004604E-02
   -1.389784E-02    2.915129E-03
   -1.295856E-02   -4.609259E-03
   -8.379232E-03   -1.034987E-02
   -1.697274E-03   -1.277624E-02
    5.043913E-03   -1.140419E-02
    9.914014E-03   -6.868504E-03
    1.164263E-02   -6.695375E-04
    9.941146E-03    5.315894E-03
    5.519688E-03    9.393573E-03
   -1.814932E-04    1.052678E-02
   -5.453046E-03    8.587956E-03
   -8.822585E-03    4.333518E-03
   -9.458075E-03   -8.718698E-04
   -7.360959E-03   -5.484688E-03
