 Vespa-Simulation Mixed Metabolite Output
 This file was generated by Vespa-Simulation. You can learn about and download Vespa here:
https://github.com/vespa-mrs/vespa/tree/main/vespa

 
 Output Path/Filename = /home/stud/casperc/bhome/Project1(DeepFit)/DeepFit-data-generation/DeepFitData_TE_20_lw14_2048p
 Output Loop Values = (1,1,1)  ( Loop 1 = 10, Loop 2 = 10, Loop3 Inactive )
 Output Comment
 ---------------------------------------------------------------------------
 
 
 Experiment Information
 ---------------------------------------------------------------------------
 --- Experiment 18b0168e-f5f0-4bd4-8d52-da93aba06c60 ---
 Name: SyntheticDataSetDeepFitTE20
 Public: False
 Created: 2024-10-08T09:55:07
 Comment (abbr.): 
 PI: Casper Cappelen
 b0: 127.740000
 Peak Search PPM low/high: -15.000000 / 15.000000
 Blend tol. PPM/phase: 0.001500 / 50.000000
 Pulse seq.: 43be13ae-de9a-40a1-9a2d-c872d8bjs100 (PRESS Ideal)
 0 User static parameters: 
 22 Metabolites: 2-hydroxyglutarate, GPC-pcholine2, NAAG-truncated, alanine, choline-trimethyl, creatine, ethanolamine, gaba, glucose-beta, glutamate, glutamine, glutathione-glutamate, glutathione-glycine-cysteine, glycine, lactate, myo-inositol, n-acetylaspartate, phosphocreatine, phosphorylcholine-trimethyl, phosphorylethanolamine, pyruvate, taurine
 22 Simulations: (not shown)
 
 Metabolite Formatting Information
 ---------------------------------------------------------------------------
 Name=2-hydroxyglutarate Abbr=2HG Scale=1.0 Shift=0.0 PPM Start=-3.1207465171441986 PPM End=12.528391440425866
 Name=GPC-pcholine2 Abbr=GPC Scale=1.0 Shift=0.0 PPM Start=-3.1207465171441986 PPM End=12.528391440425866
 Name=NAAG-truncated Abbr=NAAG Scale=1.0 Shift=0.0 PPM Start=-3.1207465171441986 PPM End=12.528391440425866
 Name=alanine Abbr=Ala Scale=1.0 Shift=0.0 PPM Start=-3.1207465171441986 PPM End=12.528391440425866
 Name=choline-trimethyl Abbr=Cho Scale=1.0 Shift=0.0 PPM Start=-3.1207465171441986 PPM End=12.528391440425866
 Name=creatine Abbr=Cr Scale=1.0 Shift=0.0 PPM Start=-3.1207465171441986 PPM End=12.528391440425866
 Name=ethanolamine Abbr=ETA Scale=1.0 Shift=0.0 PPM Start=-3.1207465171441986 PPM End=12.528391440425866
 Name=gaba Abbr=GABA Scale=1.0 Shift=0.0 PPM Start=-3.1207465171441986 PPM End=12.528391440425866
 Name=glucose-beta Abbr=Glc Scale=1.0 Shift=0.0 PPM Start=-3.1207465171441986 PPM End=12.528391440425866
 Name=glutamate Abbr=Glu Scale=1.0 Shift=0.0 PPM Start=-3.1207465171441986 PPM End=12.528391440425866
 Name=glutamine Abbr=Gln Scale=1.0 Shift=0.0 PPM Start=-3.1207465171441986 PPM End=12.528391440425866
 Name=glycine Abbr=Gly Scale=1.0 Shift=0.0 PPM Start=-3.1207465171441986 PPM End=12.528391440425866
 Name=lactate Abbr=Lac Scale=1.0 Shift=0.0 PPM Start=-3.1207465171441986 PPM End=12.528391440425866
 Name=myo-inositol Abbr=mI Scale=1.0 Shift=0.0 PPM Start=-3.1207465171441986 PPM End=12.528391440425866
 Name=n-acetylaspartate Abbr=NAA Scale=1.0 Shift=0.0 PPM Start=-3.1207465171441986 PPM End=12.528391440425866
 Name=phosphocreatine Abbr=PCr Scale=1.0 Shift=0.0 PPM Start=-3.1207465171441986 PPM End=12.528391440425866
 Name=phosphorylcholine-trimethyl Abbr=PCho Scale=1.0 Shift=0.0 PPM Start=-3.1207465171441986 PPM End=12.528391440425866
 Name=phosphorylethanolamine Abbr=PE Scale=1.0 Shift=0.0 PPM Start=-3.1207465171441986 PPM End=12.528391440425866
 Name=pyruvate Abbr=Pyr Scale=1.0 Shift=0.0 PPM Start=-3.1207465171441986 PPM End=12.528391440425866
 Name=taurine Abbr=Tau Scale=1.0 Shift=0.0 PPM Start=-3.1207465171441986 PPM End=12.528391440425866
 Name=glutathione-glutamate+glutathione-glycine-cysteine Abbr=GSH Scale=1.0 Shift=0.0 PPM Start=-3.1207565171441987 PPM End=12.528
   Mixture of [metab*scale] = glutathione-glutamate*1.000000 + glutathione-glycine-cysteine*1.000000
 
 ===========================================================================
 This LCModel format RAW file was created using the 
 Vespa-Simulation spectral simulation program using 
 the following settings and parameters 
 
 Sweep Width = 2000.0 Hz 
 Vector Size = 2048 points 
 Apodization = 14.0 Hz Lorentzian broadening
 B0 Field    = 127.74 MHz 
 Ref Singlet = False
  
 This data has been FFTd to be in the FREQUENCY domain
 
 $NMID ID='Tau'
 FMTDAT='(2E16.6)'
 VOLUME=1.0
 TRAMP=1.0
 $END
    2.276971E+00    7.103418E+00
    2.280137E+00    7.145676E+00
    2.283359E+00    7.188403E+00
    2.286638E+00    7.231608E+00
    2.289975E+00    7.275298E+00
    2.293371E+00    7.319484E+00
    2.296828E+00    7.364171E+00
    2.300346E+00    7.409371E+00
    2.303928E+00    7.455091E+00
    2.307573E+00    7.501340E+00
    2.311284E+00    7.548129E+00
    2.315061E+00    7.595469E+00
    2.318906E+00    7.643369E+00
    2.322822E+00    7.691840E+00
    2.326810E+00    7.740893E+00
    2.330873E+00    7.790539E+00
    2.335013E+00    7.840788E+00
    2.339230E+00    7.891651E+00
    2.343528E+00    7.943141E+00
    2.347909E+00    7.995269E+00
    2.352374E+00    8.048048E+00
    2.356926E+00    8.101490E+00
    2.361569E+00    8.155609E+00
    2.366303E+00    8.210416E+00
    2.371132E+00    8.265924E+00
    2.376057E+00    8.322149E+00
    2.381082E+00    8.379104E+00
    2.386208E+00    8.436804E+00
    2.391438E+00    8.495265E+00
    2.396776E+00    8.554501E+00
    2.402225E+00    8.614530E+00
    2.407789E+00    8.675366E+00
    2.413469E+00    8.737027E+00
    2.419270E+00    8.799529E+00
    2.425193E+00    8.862891E+00
    2.431244E+00    8.927130E+00
    2.437426E+00    8.992266E+00
    2.443743E+00    9.058318E+00
    2.450199E+00    9.125305E+00
    2.456797E+00    9.193248E+00
    2.463542E+00    9.262168E+00
    2.470439E+00    9.332085E+00
    2.477490E+00    9.403024E+00
    2.484702E+00    9.475006E+00
    2.492078E+00    9.548057E+00
    2.499625E+00    9.622200E+00
    2.507348E+00    9.697461E+00
    2.515252E+00    9.773865E+00
    2.523344E+00    9.851440E+00
    2.531629E+00    9.930212E+00
    2.540113E+00    1.001021E+01
    2.548803E+00    1.009146E+01
    2.557706E+00    1.017400E+01
    2.566829E+00    1.025786E+01
    2.576180E+00    1.034307E+01
    2.585766E+00    1.042966E+01
    2.595595E+00    1.051767E+01
    2.605676E+00    1.060713E+01
    2.616016E+00    1.069808E+01
    2.626624E+00    1.079056E+01
    2.637511E+00    1.088460E+01
    2.648686E+00    1.098026E+01
    2.660161E+00    1.107757E+01
    2.671946E+00    1.117657E+01
    2.684052E+00    1.127732E+01
    2.696491E+00    1.137985E+01
    2.709276E+00    1.148422E+01
    2.722419E+00    1.159047E+01
    2.735935E+00    1.169866E+01
    2.749838E+00    1.180885E+01
    2.764142E+00    1.192109E+01
    2.778864E+00    1.203543E+01
    2.794019E+00    1.215195E+01
    2.809626E+00    1.227070E+01
    2.825702E+00    1.239175E+01
    2.842267E+00    1.251516E+01
    2.859340E+00    1.264101E+01
    2.876943E+00    1.276938E+01
    2.895098E+00    1.290034E+01
    2.913830E+00    1.303397E+01
    2.933163E+00    1.317035E+01
    2.953125E+00    1.330957E+01
    2.973742E+00    1.345173E+01
    2.995044E+00    1.359691E+01
    3.017062E+00    1.374522E+01
    3.039828E+00    1.389676E+01
    3.063378E+00    1.405163E+01
    3.087746E+00    1.420996E+01
    3.112974E+00    1.437186E+01
    3.139102E+00    1.453746E+01
    3.166175E+00    1.470687E+01
    3.194238E+00    1.488025E+01
    3.223343E+00    1.505773E+01
    3.253542E+00    1.523946E+01
    3.284892E+00    1.542560E+01
    3.317451E+00    1.561631E+01
    3.351284E+00    1.581177E+01
    3.386459E+00    1.601215E+01
    3.423049E+00    1.621765E+01
    3.461133E+00    1.642848E+01
    3.500794E+00    1.664483E+01
    3.542123E+00    1.686695E+01
    3.585215E+00    1.709505E+01
    3.630173E+00    1.732940E+01
    3.677110E+00    1.757025E+01
    3.726145E+00    1.781788E+01
    3.777407E+00    1.807259E+01
    3.831037E+00    1.833469E+01
    3.887184E+00    1.860451E+01
    3.946012E+00    1.888240E+01
    4.007697E+00    1.916873E+01
    4.072432E+00    1.946390E+01
    4.140425E+00    1.976833E+01
    4.211903E+00    2.008246E+01
    4.287114E+00    2.040678E+01
    4.366328E+00    2.074178E+01
    4.449841E+00    2.108803E+01
    4.537976E+00    2.144609E+01
    4.631090E+00    2.181658E+01
    4.729573E+00    2.220018E+01
    4.833857E+00    2.259760E+01
    4.944419E+00    2.300959E+01
    5.061786E+00    2.343699E+01
    5.186541E+00    2.388068E+01
    5.319335E+00    2.434161E+01
    5.460891E+00    2.482081E+01
    5.612020E+00    2.531938E+01
    5.773630E+00    2.583853E+01
    5.946739E+00    2.637955E+01
    6.132498E+00    2.694384E+01
    6.332205E+00    2.753292E+01
    6.547332E+00    2.814844E+01
    6.779558E+00    2.879218E+01
    7.030797E+00    2.946607E+01
    7.303245E+00    3.017223E+01
    7.599428E+00    3.091291E+01
    7.922264E+00    3.169059E+01
    8.275139E+00    3.250792E+01
    8.661994E+00    3.336775E+01
    9.087436E+00    3.427314E+01
    9.556868E+00    3.522733E+01
    1.007665E+01    3.623370E+01
    1.065428E+01    3.729576E+01
    1.129864E+01    3.841702E+01
    1.202022E+01    3.960093E+01
    1.283153E+01    4.085070E+01
    1.374755E+01    4.216904E+01
    1.478631E+01    4.355768E+01
    1.596961E+01    4.501657E+01
    1.732363E+01    4.654258E+01
    1.887928E+01    4.812755E+01
    2.067195E+01    4.975586E+01
    2.274040E+01    5.140121E+01
    2.512378E+01    5.302303E+01
    2.785611E+01    5.456335E+01
    3.095759E+01    5.594623E+01
    3.442402E+01    5.708276E+01
    3.821926E+01    5.788435E+01
    4.227820E+01    5.828143E+01
    4.652493E+01    5.823721E+01
    5.089883E+01    5.774287E+01
    5.536945E+01    5.679056E+01
    5.992301E+01    5.533940E+01
    6.451965E+01    5.330085E+01
    6.904424E+01    5.056596E+01
    7.328849E+01    4.707207E+01
    7.699252E+01    4.287496E+01
    7.993981E+01    3.817457E+01
    8.205437E+01    3.325559E+01
    8.342075E+01    2.836200E+01
    8.419080E+01    2.359872E+01
    8.444550E+01    1.895263E+01
