jMRUI Data Textfile
 
Filename: 2HG.txt
 
PointsInDataset: 2048
DatasetsInFile: 1
SamplingInterval: 5.00000E-01
ZeroOrderPhase: 0E0
BeginTime: 0E0
TransmitterFrequency: 1.27740E+08
MagneticField: 0E0
TypeOfNucleus: 0E0
NameOfPatient: 
DateOfExperiment: 
Spectrometer: Vespa-Simulation
AdditionalInfo: see 'readme' file for Vespa-Simulation output synopsis
 
  
Signal and FFT 
sig(real)	sig(imag)	fft(real)	fft(imag)
Signal 1 out of 1 in file
3.48545E+00	-2.66156E-01	1.67874E+00	-5.22927E+00
1.84038E+00	-2.69155E+00	1.67584E+00	-5.19033E+00
-9.55561E-01	-2.58145E+00	1.67304E+00	-5.15206E+00
-2.16582E+00	-2.71525E-01	1.67039E+00	-5.11446E+00
-7.70317E-01	1.73651E+00	1.66789E+00	-5.07755E+00
1.58104E+00	1.38936E+00	1.66548E+00	-5.04131E+00
2.36556E+00	-8.77017E-01	1.66315E+00	-5.00573E+00
7.64821E-01	-2.72030E+00	1.66089E+00	-4.97074E+00
-1.63547E+00	-2.34647E+00	1.65871E+00	-4.93632E+00
-2.59029E+00	-2.31687E-01	1.65662E+00	-4.90245E+00
-1.43739E+00	1.54686E+00	1.65463E+00	-4.86914E+00
4.33935E-01	1.47983E+00	1.65274E+00	-4.83636E+00
1.15908E+00	-1.51849E-03	1.65093E+00	-4.80413E+00
2.34941E-01	-1.19555E+00	1.64920E+00	-4.77242E+00
-1.19909E+00	-9.24619E-01	1.64753E+00	-4.74122E+00
-1.68254E+00	4.36061E-01	1.64590E+00	-4.71051E+00
-8.44094E-01	1.55715E+00	1.64433E+00	-4.68026E+00
4.48069E-01	1.53653E+00	1.64282E+00	-4.65044E+00
1.10152E+00	6.25316E-01	1.64139E+00	-4.62107E+00
8.04921E-01	-2.39009E-01	1.64003E+00	-4.59214E+00
1.09752E-01	-4.00757E-01	1.63872E+00	-4.56363E+00
-2.58682E-01	3.46345E-02	1.63747E+00	-4.53555E+00
-4.80160E-02	5.00042E-01	1.63626E+00	-4.50787E+00
4.59096E-01	5.56210E-01	1.63510E+00	-4.48059E+00
8.25428E-01	1.85748E-01	1.63397E+00	-4.45368E+00
8.15695E-01	-3.31248E-01	1.63289E+00	-4.42714E+00
4.76520E-01	-6.90311E-01	1.63186E+00	-4.40096E+00
2.37594E-02	-7.33666E-01	1.63088E+00	-4.37513E+00
-2.97627E-01	-4.90756E-01	1.62996E+00	-4.34966E+00
-3.32802E-01	-1.50903E-01	1.62907E+00	-4.32454E+00
-1.16560E-01	3.32980E-02	1.62820E+00	-4.29976E+00
1.18537E-01	-7.91936E-02	1.62736E+00	-4.27529E+00
1.03032E-01	-3.75190E-01	1.62655E+00	-4.25114E+00
-2.24138E-01	-5.46384E-01	1.62577E+00	-4.22729E+00
-6.21789E-01	-3.58177E-01	1.62503E+00	-4.20372E+00
-7.43040E-01	1.08447E-01	1.62434E+00	-4.18044E+00
-4.64873E-01	5.04021E-01	1.62369E+00	-4.15746E+00
-2.09771E-02	5.32420E-01	1.62306E+00	-4.13478E+00
2.14919E-01	2.35573E-01	1.62247E+00	-4.11238E+00
8.82114E-02	-5.19445E-02	1.62190E+00	-4.09025E+00
-1.97367E-01	-3.61953E-02	1.62134E+00	-4.06839E+00
-2.97052E-01	2.53901E-01	1.62079E+00	-4.04678E+00
-6.92913E-02	5.14908E-01	1.62028E+00	-4.02542E+00
3.00883E-01	4.81491E-01	1.61980E+00	-4.00430E+00
5.04258E-01	1.76836E-01	1.61934E+00	-3.98344E+00
4.09106E-01	-1.37486E-01	1.61889E+00	-3.96280E+00
1.59928E-01	-2.31604E-01	1.61848E+00	-3.94239E+00
3.78279E-03	-1.11361E-01	1.61808E+00	-3.92222E+00
4.76775E-02	2.87194E-02	1.61769E+00	-3.90226E+00
1.87313E-01	1.97447E-02	1.61734E+00	-3.88250E+00
2.44964E-01	-1.30365E-01	1.61704E+00	-3.86298E+00
1.48440E-01	-2.78927E-01	1.61675E+00	-3.84370E+00
-2.42802E-02	-3.06061E-01	1.61645E+00	-3.82463E+00
-1.47613E-01	-2.16456E-01	1.61615E+00	-3.80575E+00
-1.69419E-01	-1.03697E-01	1.61587E+00	-3.78708E+00
-1.33766E-01	-4.38430E-02	1.61558E+00	-3.76858E+00
-1.10020E-01	-3.56935E-02	1.61531E+00	-3.75023E+00
-1.20808E-01	-3.09340E-02	1.61511E+00	-3.73206E+00
-1.38188E-01	7.93543E-04	1.61494E+00	-3.71412E+00
-1.31644E-01	4.64102E-02	1.61475E+00	-3.69636E+00
-1.03458E-01	7.82419E-02	1.61460E+00	-3.67877E+00
-7.64820E-02	9.12580E-02	1.61448E+00	-3.66139E+00
-5.91999E-02	1.03849E-01	1.61433E+00	-3.64420E+00
-3.44131E-02	1.26971E-01	1.61415E+00	-3.62714E+00
1.55464E-02	1.43248E-01	1.61402E+00	-3.61022E+00
7.89258E-02	1.23471E-01	1.61393E+00	-3.59349E+00
1.17728E-01	6.30094E-02	1.61381E+00	-3.57693E+00
1.04480E-01	-3.85211E-03	1.61371E+00	-3.56049E+00
5.45348E-02	-3.16203E-02	1.61365E+00	-3.54422E+00
1.71980E-02	-8.23329E-03	1.61359E+00	-3.52813E+00
3.00787E-02	2.92176E-02	1.61350E+00	-3.51218E+00
8.02639E-02	2.72951E-02	1.61345E+00	-3.49634E+00
1.12662E-01	-3.12116E-02	1.61341E+00	-3.48067E+00
8.13111E-02	-1.06122E-01	1.61337E+00	-3.46513E+00
-3.88017E-03	-1.33650E-01	1.61336E+00	-3.44971E+00
-8.12494E-02	-8.60017E-02	1.61337E+00	-3.43446E+00
-9.16840E-02	-4.56937E-04	1.61337E+00	-3.41936E+00
-3.36125E-02	5.18561E-02	1.61337E+00	-3.40437E+00
3.39038E-02	3.04431E-02	1.61340E+00	-3.38952E+00
4.48819E-02	-3.68191E-02	1.61341E+00	-3.37481E+00
-1.22660E-02	-7.92591E-02	1.61342E+00	-3.36020E+00
-8.36070E-02	-4.94557E-02	1.61346E+00	-3.34571E+00
-9.98974E-02	3.19832E-02	1.61352E+00	-3.33136E+00
-4.13092E-02	9.51595E-02	1.61357E+00	-3.31714E+00
4.40968E-02	8.55001E-02	1.61362E+00	-3.30303E+00
8.48880E-02	1.34035E-02	1.61369E+00	-3.28903E+00
5.11716E-02	-5.68274E-02	1.61377E+00	-3.27517E+00
-2.06263E-02	-6.66263E-02	1.61381E+00	-3.26142E+00
-6.39601E-02	-1.46184E-02	1.61387E+00	-3.24774E+00
-4.29363E-02	4.62465E-02	1.61398E+00	-3.23418E+00
1.85402E-02	5.93849E-02	1.61407E+00	-3.22075E+00
6.23392E-02	1.42107E-02	1.61417E+00	-3.20742E+00
4.88223E-02	-4.83421E-02	1.61427E+00	-3.19419E+00
-1.11051E-02	-7.42777E-02	1.61439E+00	-3.18107E+00
-6.86861E-02	-4.19748E-02	1.61450E+00	-3.16806E+00
-7.91053E-02	2.27297E-02	1.61461E+00	-3.15514E+00
-3.64657E-02	6.98151E-02	1.61474E+00	-3.14231E+00
2.34987E-02	6.52011E-02	1.61488E+00	-3.12960E+00
5.25082E-02	1.70434E-02	1.61502E+00	-3.11699E+00
2.84234E-02	-3.06167E-02	1.61515E+00	-3.10448E+00
-2.52515E-02	-3.30628E-02	1.61527E+00	-3.09206E+00
-5.62590E-02	1.62528E-02	1.61539E+00	-3.07971E+00
-2.77755E-02	7.56057E-02	1.61554E+00	-3.06744E+00
4.51602E-02	8.77072E-02	1.61570E+00	-3.05529E+00
1.02829E-01	3.22512E-02	1.61584E+00	-3.04322E+00
9.26803E-02	-4.94818E-02	1.61599E+00	-3.03121E+00
2.15811E-02	-8.76022E-02	1.61618E+00	-3.01931E+00
-4.47838E-02	-4.96886E-02	1.61635E+00	-3.00753E+00
-4.23321E-02	2.33578E-02	1.61649E+00	-2.99579E+00
2.62551E-02	5.27703E-02	1.61668E+00	-2.98411E+00
8.89463E-02	-2.74979E-04	1.61690E+00	-2.97257E+00
7.31314E-02	-9.14034E-02	1.61706E+00	-2.96114E+00
-1.96576E-02	-1.32244E-01	1.61720E+00	-2.94970E+00
-1.10057E-01	-7.75348E-02	1.61744E+00	-2.93835E+00
-1.16434E-01	2.66313E-02	1.61764E+00	-2.92718E+00
-3.64626E-02	8.47711E-02	1.61776E+00	-2.91602E+00
4.78164E-02	4.54479E-02	1.61795E+00	-2.90486E+00
4.93077E-02	-4.62228E-02	1.61820E+00	-2.89385E+00
-3.73848E-02	-9.07151E-02	1.61840E+00	-2.88296E+00
-1.27665E-01	-3.14871E-02	1.61854E+00	-2.87208E+00
-1.27224E-01	8.70280E-02	1.61876E+00	-2.86124E+00
-2.44786E-02	1.58558E-01	1.61902E+00	-2.85053E+00
9.43211E-02	1.15710E-01	1.61921E+00	-2.83993E+00
1.24192E-01	-3.17230E-03	1.61935E+00	-2.82933E+00
4.17851E-02	-8.65508E-02	1.61959E+00	-2.81874E+00
-6.85894E-02	-5.42944E-02	1.61987E+00	-2.80833E+00
-9.17219E-02	6.29251E-02	1.62004E+00	-2.79799E+00
7.41202E-03	1.47328E-01	1.62023E+00	-2.78764E+00
1.43806E-01	1.04210E-01	1.62049E+00	-2.77736E+00
1.87482E-01	-4.29020E-02	1.62075E+00	-2.76722E+00
8.82358E-02	-1.66606E-01	1.62092E+00	-2.75713E+00
-6.92525E-02	-1.53476E-01	1.62113E+00	-2.74702E+00
-1.39899E-01	-1.66290E-02	1.62141E+00	-2.73702E+00
-5.78469E-02	1.09805E-01	1.62163E+00	-2.72714E+00
9.39780E-02	9.72276E-02	1.62182E+00	-2.71726E+00
1.59034E-01	-4.89262E-02	1.62207E+00	-2.70743E+00
6.01911E-02	-1.88160E-01	1.62232E+00	-2.69770E+00
-1.19633E-01	-1.79345E-01	1.62252E+00	-2.68804E+00
-2.14033E-01	-2.11050E-02	1.62272E+00	-2.67839E+00
-1.35273E-01	1.43129E-01	1.62294E+00	-2.66877E+00
3.86240E-02	1.63977E-01	1.62319E+00	-2.65922E+00
1.40297E-01	3.17479E-02	1.62346E+00	-2.64974E+00
7.68538E-02	-1.16378E-01	1.62372E+00	-2.64033E+00
-8.24950E-02	-1.32969E-01	1.62400E+00	-2.63098E+00
-1.79175E-01	-2.24998E-03	1.62427E+00	-2.62172E+00
-1.20402E-01	1.51578E-01	1.62450E+00	-2.61252E+00
3.82537E-02	1.89456E-01	1.62470E+00	-2.60336E+00
1.55815E-01	8.61999E-02	1.62490E+00	-2.59420E+00
1.40723E-01	-5.84944E-02	1.62513E+00	-2.58508E+00
2.44396E-02	-1.22220E-01	1.62539E+00	-2.57602E+00
-8.29184E-02	-6.63413E-02	1.62565E+00	-2.56703E+00
-9.48056E-02	4.64117E-02	1.62591E+00	-2.55809E+00
-1.09026E-02	1.18414E-01	1.62617E+00	-2.54922E+00
9.81999E-02	9.42016E-02	1.62641E+00	-2.54040E+00
1.50028E-01	-9.06865E-03	1.62665E+00	-2.53160E+00
1.03271E-01	-1.20444E-01	1.62690E+00	-2.52285E+00
-1.73817E-02	-1.59421E-01	1.62716E+00	-2.51415E+00
-1.29690E-01	-8.77256E-02	1.62742E+00	-2.50550E+00
-1.41965E-01	5.21251E-02	1.62769E+00	-2.49690E+00
-2.82972E-02	1.48744E-01	1.62796E+00	-2.48836E+00
1.26352E-01	1.04112E-01	1.62822E+00	-2.47988E+00
1.76374E-01	-6.50685E-02	1.62846E+00	-2.47143E+00
4.81400E-02	-2.11866E-01	1.62870E+00	-2.46301E+00
-1.64011E-01	-1.79826E-01	1.62895E+00	-2.45463E+00
-2.58901E-01	3.31036E-02	1.62921E+00	-2.44629E+00
-1.20908E-01	2.40483E-01	1.62948E+00	-2.43800E+00
1.41209E-01	2.31880E-01	1.62976E+00	-2.42977E+00
2.74546E-01	-7.05147E-03	1.63002E+00	-2.42159E+00
1.30586E-01	-2.52502E-01	1.63027E+00	-2.41345E+00
-1.65360E-01	-2.51274E-01	1.63051E+00	-2.40534E+00
-3.18867E-01	1.51911E-02	1.63075E+00	-2.39726E+00
-1.61371E-01	2.91495E-01	1.63100E+00	-2.38921E+00
1.64772E-01	2.96217E-01	1.63126E+00	-2.38119E+00
3.36993E-01	1.32346E-02	1.63155E+00	-2.37322E+00
1.78549E-01	-2.80446E-01	1.63184E+00	-2.36530E+00
-1.55612E-01	-2.90853E-01	1.63213E+00	-2.35744E+00
-3.31752E-01	-7.12665E-03	1.63242E+00	-2.34963E+00
-1.75446E-01	2.86522E-01	1.63268E+00	-2.34187E+00
1.54051E-01	2.99926E-01	1.63293E+00	-2.33414E+00
3.30235E-01	2.74560E-02	1.63316E+00	-2.32643E+00
1.89159E-01	-2.55833E-01	1.63341E+00	-2.31873E+00
-1.16387E-01	-2.77831E-01	1.63367E+00	-2.31107E+00
-2.84198E-01	-3.48884E-02	1.63395E+00	-2.30346E+00
-1.65099E-01	2.23177E-01	1.63423E+00	-2.29591E+00
1.06730E-01	2.52574E-01	1.63448E+00	-2.28840E+00
2.67088E-01	4.52720E-02	1.63470E+00	-2.28090E+00
1.81723E-01	-1.88763E-01	1.63495E+00	-2.27339E+00
-4.63826E-02	-2.40372E-01	1.63524E+00	-2.26592E+00
-2.01828E-01	-8.93205E-02	1.63555E+00	-2.25851E+00
-1.63579E-01	1.06238E-01	1.63585E+00	-2.25116E+00
6.34063E-03	1.75105E-01	1.63615E+00	-2.24386E+00
