jMRUI Data Textfile
 
Filename: Ala.txt
 
PointsInDataset: 2048
DatasetsInFile: 1
SamplingInterval: 5.00000E-01
ZeroOrderPhase: 0E0
BeginTime: 0E0
TransmitterFrequency: 1.27740E+08
MagneticField: 0E0
TypeOfNucleus: 0E0
NameOfPatient: 
DateOfExperiment: 
Spectrometer: Vespa-Simulation
AdditionalInfo: see 'readme' file for Vespa-Simulation output synopsis
 
  
Signal and FFT 
sig(real)	sig(imag)	fft(real)	fft(imag)
Signal 1 out of 1 in file
2.95103E+00	1.28406E-02	1.57316E+00	-3.02643E+00
1.16078E+00	-2.48783E+00	1.57158E+00	-3.00937E+00
-1.61146E+00	-1.61415E+00	1.57005E+00	-2.99241E+00
-1.51134E+00	1.07525E+00	1.56866E+00	-2.97568E+00
1.01021E+00	1.54004E+00	1.56729E+00	-2.95923E+00
2.01877E+00	-8.44436E-01	1.56586E+00	-2.94297E+00
-1.03522E-01	-2.50525E+00	1.56449E+00	-2.92678E+00
-2.38407E+00	-9.57149E-01	1.56328E+00	-2.91081E+00
-1.66297E+00	1.64496E+00	1.56208E+00	-2.89517E+00
8.76739E-01	1.73270E+00	1.56075E+00	-2.87972E+00
1.56020E+00	-5.34136E-01	1.55945E+00	-2.86423E+00
-4.27707E-01	-1.65561E+00	1.55839E+00	-2.84893E+00
-1.99392E+00	4.77176E-02	1.55738E+00	-2.83402E+00
-7.38411E-01	2.08106E+00	1.55612E+00	-2.81930E+00
1.60569E+00	1.50408E+00	1.55493E+00	-2.80441E+00
1.78794E+00	-8.31257E-01	1.55414E+00	-2.78985E+00
-2.62392E-01	-1.63130E+00	1.55310E+00	-2.77577E+00
-1.46868E+00	4.60795E-02	1.55182E+00	-2.76153E+00
-1.39535E-01	1.55501E+00	1.55089E+00	-2.74729E+00
1.66864E+00	6.12109E-01	1.55003E+00	-2.73344E+00
1.25651E+00	-1.43306E+00	1.54906E+00	-2.71979E+00
-8.13391E-01	-1.66603E+00	1.54796E+00	-2.70620E+00
-1.63791E+00	1.62610E-01	1.54703E+00	-2.69249E+00
-2.05795E-01	1.38908E+00	1.54639E+00	-2.67918E+00
1.25117E+00	3.59958E-01	1.54542E+00	-2.66623E+00
5.97492E-01	-1.26080E+00	1.54433E+00	-2.65300E+00
-1.15454E+00	-1.02908E+00	1.54367E+00	-2.63988E+00
-1.43168E+00	7.38913E-01	1.54294E+00	-2.62721E+00
1.49286E-01	1.52963E+00	1.54202E+00	-2.61458E+00
1.32434E+00	3.11468E-01	1.54116E+00	-2.60188E+00
5.23311E-01	-1.06639E+00	1.54053E+00	-2.58935E+00
-9.35581E-01	-6.46847E-01	1.53986E+00	-2.57713E+00
-8.74366E-01	8.44253E-01	1.53905E+00	-2.56500E+00
5.90766E-01	1.17119E+00	1.53825E+00	-2.55283E+00
1.32438E+00	-1.41863E-01	1.53762E+00	-2.54078E+00
3.14116E-01	-1.21162E+00	1.53699E+00	-2.52898E+00
-9.42402E-01	-5.88095E-01	1.53626E+00	-2.51729E+00
-6.92957E-01	7.11919E-01	1.53553E+00	-2.50562E+00
5.71847E-01	7.85517E-01	1.53489E+00	-2.49403E+00
9.45417E-01	-4.02998E-01	1.53425E+00	-2.48264E+00
-1.00728E-01	-1.07651E+00	1.53352E+00	-2.47132E+00
-1.03804E+00	-2.74824E-01	1.53279E+00	-2.45997E+00
-5.64240E-01	8.23260E-01	1.53221E+00	-2.44868E+00
5.63767E-01	6.89970E-01	1.53171E+00	-2.43756E+00
7.23838E-01	-3.71374E-01	1.53120E+00	-2.42659E+00
-2.24501E-01	-7.72235E-01	1.53070E+00	-2.41572E+00
-8.38019E-01	2.95557E-02	1.53023E+00	-2.40499E+00
-2.37196E-01	8.28239E-01	1.52972E+00	-2.39444E+00
6.82197E-01	4.88966E-01	1.52908E+00	-2.38394E+00
6.28209E-01	-4.51417E-01	1.52846E+00	-2.37342E+00
-2.39578E-01	-6.52136E-01	1.52791E+00	-2.36296E+00
-6.37328E-01	8.89153E-02	1.52738E+00	-2.35261E+00
-4.55733E-02	6.35796E-01	1.52685E+00	-2.34233E+00
6.17537E-01	2.14814E-01	1.52635E+00	-2.33211E+00
3.98315E-01	-5.22657E-01	1.52591E+00	-2.32200E+00
-3.47050E-01	-5.24495E-01	1.52547E+00	-2.31202E+00
-5.53579E-01	1.53909E-01	1.52496E+00	-2.30212E+00
4.60713E-03	5.17001E-01	1.52447E+00	-2.29224E+00
4.71135E-01	9.99428E-02	1.52402E+00	-2.28242E+00
1.99740E-01	-4.30641E-01	1.52360E+00	-2.27271E+00
-3.62981E-01	-3.11539E-01	1.52318E+00	-2.26308E+00
-4.02887E-01	2.42702E-01	1.52276E+00	-2.25352E+00
9.24358E-02	4.31553E-01	1.52236E+00	-2.24403E+00
3.95571E-01	3.78752E-02	1.52198E+00	-2.23464E+00
1.22607E-01	-3.32742E-01	1.52158E+00	-2.22535E+00
-2.75576E-01	-1.78403E-01	1.52114E+00	-2.21612E+00
-2.31621E-01	2.20167E-01	1.52070E+00	-2.20690E+00
1.43773E-01	2.80612E-01	1.52031E+00	-2.19776E+00
2.98704E-01	-4.36782E-02	1.51991E+00	-2.18870E+00
5.25774E-02	-2.69769E-01	1.51949E+00	-2.17969E+00
-2.09757E-01	-1.15405E-01	1.51910E+00	-2.17071E+00
-1.42492E-01	1.49414E-01	1.51874E+00	-2.16180E+00
1.02503E-01	1.54282E-01	1.51839E+00	-2.15298E+00
1.65012E-01	-5.85329E-02	1.51802E+00	-2.14422E+00
-5.28101E-03	-1.66723E-01	1.51766E+00	-2.13548E+00
-1.43827E-01	-4.97884E-02	1.51736E+00	-2.12681E+00
-8.55223E-02	9.70706E-02	1.51706E+00	-2.11825E+00
4.64601E-02	9.07630E-02	1.51674E+00	-2.10976E+00
7.55595E-02	-1.11294E-02	1.51640E+00	-2.10131E+00
7.78483E-03	-5.76206E-02	1.51608E+00	-2.09291E+00
-4.27899E-02	-2.15476E-02	1.51576E+00	-2.08458E+00
-3.51771E-02	2.33524E-02	1.51544E+00	-2.07629E+00
-6.23687E-03	4.00553E-02	1.51512E+00	-2.06804E+00
2.56228E-02	3.77300E-02	1.51485E+00	-2.05986E+00
5.57474E-02	6.16546E-03	1.51456E+00	-2.05178E+00
4.16355E-02	-5.30737E-02	1.51421E+00	-2.04374E+00
-3.55152E-02	-6.89444E-02	1.51386E+00	-2.03570E+00
-8.68968E-02	1.21861E-02	1.51356E+00	-2.02768E+00
-1.48876E-02	9.97062E-02	1.51328E+00	-2.01974E+00
1.06769E-01	4.93963E-02	1.51299E+00	-2.01185E+00
9.15056E-02	-1.01028E-01	1.51271E+00	-2.00397E+00
-7.66276E-02	-1.33675E-01	1.51251E+00	-1.99617E+00
-1.65869E-01	3.50594E-02	1.51230E+00	-1.98850E+00
-1.70083E-02	1.82272E-01	1.51200E+00	-1.98089E+00
1.81723E-01	7.32752E-02	1.51167E+00	-1.97323E+00
1.29285E-01	-1.64160E-01	1.51144E+00	-1.96557E+00
-1.29521E-01	-1.80336E-01	1.51125E+00	-1.95804E+00
-2.21144E-01	7.95587E-02	1.51102E+00	-1.95059E+00
1.77822E-02	2.47960E-01	1.51076E+00	-1.94318E+00
2.58373E-01	5.29740E-02	1.51052E+00	-1.93579E+00
1.30160E-01	-2.48165E-01	1.51026E+00	-1.92848E+00
-2.11535E-01	-2.06729E-01	1.50996E+00	-1.92119E+00
-2.69603E-01	1.47862E-01	1.50965E+00	-1.91389E+00
6.69134E-02	3.07312E-01	1.50939E+00	-1.90658E+00
3.19437E-01	1.74065E-02	1.50919E+00	-1.89934E+00
9.96714E-02	-3.13971E-01	1.50898E+00	-1.89218E+00
-2.93071E-01	-1.84945E-01	1.50876E+00	-1.88506E+00
-2.74314E-01	2.45769E-01	1.50856E+00	-1.87798E+00
1.61125E-01	3.51538E-01	1.50836E+00	-1.87095E+00
3.91986E-01	-4.79464E-02	1.50814E+00	-1.86395E+00
6.62997E-02	-3.87252E-01	1.50793E+00	-1.85697E+00
-3.54287E-01	-1.61280E-01	1.50776E+00	-1.85002E+00
-2.43158E-01	3.13161E-01	1.50763E+00	-1.84314E+00
2.59176E-01	3.29637E-01	1.50749E+00	-1.83636E+00
4.16058E-01	-1.67884E-01	1.50731E+00	-1.82963E+00
-3.17424E-02	-4.67876E-01	1.50710E+00	-1.82293E+00
-4.55386E-01	-1.17711E-01	1.50688E+00	-1.81626E+00
-2.36132E-01	3.90145E-01	1.50663E+00	-1.80962E+00
3.13289E-01	3.13212E-01	1.50635E+00	-1.80297E+00
3.79216E-01	-2.44954E-01	1.50610E+00	-1.79631E+00
-1.58823E-01	-4.57586E-01	1.50591E+00	-1.78967E+00
-5.22076E-01	2.00054E-02	1.50574E+00	-1.78311E+00
-1.57900E-01	5.18682E-01	1.50554E+00	-1.77661E+00
4.31287E-01	3.12622E-01	1.50533E+00	-1.77010E+00
3.98324E-01	-3.07535E-01	1.50514E+00	-1.76360E+00
-2.05166E-01	-4.36251E-01	1.50497E+00	-1.75715E+00
-4.81783E-01	1.22145E-01	1.50480E+00	-1.75070E+00
2.99671E-03	5.43987E-01	1.50471E+00	-1.74425E+00
5.62136E-01	1.79853E-01	1.50472E+00	-1.73791E+00
3.72462E-01	-4.77270E-01	1.50475E+00	-1.73177E+00
-3.12515E-01	-4.89318E-01	1.50461E+00	-1.72581E+00
-5.11354E-01	1.54943E-01	1.50422E+00	-1.71982E+00
5.38851E-02	5.05759E-01	1.50378E+00	-1.71362E+00
5.35230E-01	3.65989E-02	1.50344E+00	-1.70732E+00
1.91044E-01	-5.68702E-01	1.50317E+00	-1.70100E+00
-5.13389E-01	-4.01038E-01	1.50302E+00	-1.69465E+00
-5.64901E-01	3.35765E-01	1.50304E+00	-1.68834E+00
1.17444E-01	6.01728E-01	1.50322E+00	-1.68224E+00
5.48982E-01	3.37603E-02	1.50335E+00	-1.67645E+00
1.11736E-01	-5.13789E-01	1.50321E+00	-1.67078E+00
-5.32116E-01	-2.12600E-01	1.50291E+00	-1.66500E+00
-3.99487E-01	5.16348E-01	1.50259E+00	-1.65913E+00
3.66805E-01	6.02020E-01	1.50227E+00	-1.65320E+00
6.86977E-01	-1.10700E-01	1.50202E+00	-1.64720E+00
1.13861E-01	-6.19210E-01	1.50188E+00	-1.64121E+00
-5.07135E-01	-2.18363E-01	1.50182E+00	-1.63530E+00
-2.67854E-01	4.66131E-01	1.50175E+00	-1.62949E+00
4.68942E-01	3.88605E-01	1.50169E+00	-1.62371E+00
5.91058E-01	-3.79138E-01	1.50164E+00	-1.61800E+00
-1.33707E-01	-7.36909E-01	1.50156E+00	-1.61239E+00
-7.02656E-01	-1.57446E-01	1.50138E+00	-1.60680E+00
-3.31227E-01	5.36356E-01	1.50116E+00	-1.60115E+00
4.02194E-01	3.65786E-01	1.50101E+00	-1.59545E+00
4.00313E-01	-3.74592E-01	1.50093E+00	-1.58982E+00
-3.44010E-01	-5.46280E-01	1.50082E+00	-1.58427E+00
-7.28628E-01	1.62384E-01	1.50069E+00	-1.57871E+00
-1.51501E-01	7.66649E-01	1.50062E+00	-1.57317E+00
6.00502E-01	4.13358E-01	1.50055E+00	-1.56774E+00
4.90029E-01	-3.74388E-01	1.50040E+00	-1.56238E+00
-2.61732E-01	-4.59198E-01	1.50016E+00	-1.55699E+00
-5.02737E-01	2.49427E-01	1.49992E+00	-1.55152E+00
1.59672E-01	6.63193E-01	1.49975E+00	-1.54603E+00
7.75801E-01	1.10320E-01	1.49959E+00	-1.54060E+00
4.35902E-01	-6.71871E-01	1.49943E+00	-1.53514E+00
-3.99066E-01	-6.02330E-01	1.49936E+00	-1.52967E+00
-5.64853E-01	1.72829E-01	1.49938E+00	-1.52429E+00
1.12389E-01	4.99096E-01	1.49937E+00	-1.51905E+00
5.70412E-01	-9.63856E-02	1.49927E+00	-1.51386E+00
7.21376E-02	-7.13328E-01	1.49914E+00	-1.50863E+00
-7.07731E-01	-3.96525E-01	1.49904E+00	-1.50341E+00
-6.60461E-01	4.62046E-01	1.49893E+00	-1.49824E+00
1.42296E-01	6.86787E-01	1.49878E+00	-1.49308E+00
5.55144E-01	2.47597E-02	1.49864E+00	-1.48788E+00
2.91928E-02	-4.96722E-01	1.49858E+00	-1.48273E+00
-5.94703E-01	-8.02155E-02	1.49848E+00	-1.47770E+00
-3.25078E-01	6.73121E-01	1.49824E+00	-1.47263E+00
5.22148E-01	6.41854E-01	1.49802E+00	-1.46742E+00
7.76811E-01	-1.76093E-01	1.49800E+00	-1.46220E+00
1.14069E-01	-6.57349E-01	1.49805E+00	-1.45718E+00
-4.81358E-01	-1.85343E-01	1.49797E+00	-1.45226E+00
-1.58296E-01	4.64053E-01	1.49782E+00	-1.44731E+00
5.62354E-01	2.70799E-01	1.49767E+00	-1.44233E+00
5.58752E-01	-5.31351E-01	1.49753E+00	-1.43733E+00
-2.45135E-01	-7.93706E-01	1.49742E+00	-1.43235E+00
-7.62232E-01	-1.27204E-01	1.49732E+00	-1.42737E+00
-3.19952E-01	5.33891E-01	1.49728E+00	-1.42241E+00
3.73511E-01	2.94795E-01	1.49728E+00	-1.41754E+00
2.77009E-01	-4.06008E-01	1.49722E+00	-1.41276E+00
-4.60981E-01	-4.55066E-01	1.49710E+00	-1.40801E+00
-7.26405E-01	2.98217E-01	1.49688E+00	-1.40324E+00
-7.23006E-02	8.17249E-01	1.49664E+00	-1.39833E+00
