jMRUI Data Textfile
 
Filename: Cho.txt
 
PointsInDataset: 2048
DatasetsInFile: 1
SamplingInterval: 5.00000E-01
ZeroOrderPhase: 0E0
BeginTime: 0E0
TransmitterFrequency: 1.27740E+08
MagneticField: 0E0
TypeOfNucleus: 0E0
NameOfPatient: 
DateOfExperiment: 
Spectrometer: Vespa-Simulation
AdditionalInfo: see 'readme' file for Vespa-Simulation output synopsis
 
  
Signal and FFT 
sig(real)	sig(imag)	fft(real)	fft(imag)
Signal 1 out of 1 in file
8.99590E+00	-4.68701E-08	4.69489E+00	-1.43351E+01
7.32609E+00	-5.09835E+00	4.69306E+00	-1.42586E+01
3.07678E+00	-8.30398E+00	4.69117E+00	-1.41828E+01
-2.20053E+00	-8.50631E+00	4.68927E+00	-1.41077E+01
-6.61291E+00	-5.68020E+00	4.68738E+00	-1.40332E+01
-8.60456E+00	-8.78044E-01	4.68557E+00	-1.39594E+01
-7.50493E+00	4.16146E+00	4.68386E+00	-1.38863E+01
-3.75335E+00	7.64228E+00	4.68225E+00	-1.38140E+01
1.27452E+00	8.35078E+00	4.68063E+00	-1.37424E+01
5.77056E+00	6.07831E+00	4.67896E+00	-1.36716E+01
8.14411E+00	1.67961E+00	4.67728E+00	-1.36013E+01
7.58415E+00	-3.24770E+00	4.67562E+00	-1.35317E+01
4.33568E+00	-6.94296E+00	4.67390E+00	-1.34628E+01
-4.03965E-01	-8.11122E+00	4.67217E+00	-1.33943E+01
-4.92581E+00	-6.37650E+00	4.67057E+00	-1.33264E+01
-7.62508E+00	-2.40119E+00	4.66908E+00	-1.32592E+01
-7.57032E+00	2.36592E+00	4.66761E+00	-1.31926E+01
-4.82409E+00	6.21697E+00	4.66618E+00	-1.31267E+01
-4.05273E-01	7.79671E+00	4.66474E+00	-1.30614E+01
4.08852E+00	6.57892E+00	4.66322E+00	-1.29967E+01
7.05788E+00	3.04049E+00	4.66171E+00	-1.29324E+01
7.47065E+00	-1.52381E+00	4.66028E+00	-1.28687E+01
5.22011E+00	-5.47465E+00	4.65896E+00	-1.28055E+01
1.14839E+00	-7.41656E+00	4.65772E+00	-1.27429E+01
-3.26788E+00	-6.69042E+00	4.65648E+00	-1.26810E+01
-6.45271E+00	-3.59632E+00	4.65520E+00	-1.26197E+01
-7.29276E+00	7.28213E-01	4.65390E+00	-1.25588E+01
-5.52607E+00	4.72589E+00	4.65261E+00	-1.24986E+01
-1.82186E+00	6.98013E+00	4.65124E+00	-1.24389E+01
2.47205E+00	6.71662E+00	4.64973E+00	-1.23796E+01
5.81942E+00	4.06862E+00	4.64821E+00	-1.23206E+01
7.04463E+00	1.52946E-02	4.64687E+00	-1.22620E+01
5.74527E+00	-3.97981E+00	4.64573E+00	-1.22039E+01
2.42319E+00	-6.49670E+00	4.64472E+00	-1.21465E+01
-1.70848E+00	-6.66363E+00	4.64361E+00	-1.20897E+01
-5.16751E+00	-4.45818E+00	4.64221E+00	-1.20335E+01
-6.73445E+00	-7.02010E-01	4.64068E+00	-1.19774E+01
-5.88179E+00	3.24478E+00	4.63935E+00	-1.19215E+01
-2.95087E+00	5.97545E+00	4.63830E+00	-1.18661E+01
9.83372E-01	6.53814E+00	4.63741E+00	-1.18112E+01
4.50587E+00	4.76685E+00	4.63657E+00	-1.17570E+01
6.37053E+00	1.32821E+00	4.63569E+00	-1.17034E+01
5.94028E+00	-2.52852E+00	4.63467E+00	-1.16503E+01
3.40429E+00	-5.42532E+00	4.63341E+00	-1.15976E+01
-3.02291E-01	-6.34705E+00	4.63202E+00	-1.15451E+01
-3.84299E+00	-4.99710E+00	4.63074E+00	-1.14928E+01
-5.96114E+00	-1.89142E+00	4.62968E+00	-1.14409E+01
-5.92601E+00	1.83787E+00	4.62874E+00	-1.13894E+01
-3.78402E+00	4.85479E+00	4.62783E+00	-1.13385E+01
-3.30228E-01	6.09758E+00	4.62688E+00	-1.12881E+01
3.18652E+00	5.15234E+00	4.62580E+00	-1.12380E+01
5.51448E+00	2.38981E+00	4.62465E+00	-1.11883E+01
5.84465E+00	-1.17898E+00	4.62350E+00	-1.11387E+01
4.09117E+00	-4.27205E+00	4.62244E+00	-1.10895E+01
9.10477E-01	-5.79706E+00	4.62157E+00	-1.10405E+01
-2.54363E+00	-5.23643E+00	4.62091E+00	-1.09920E+01
-5.03861E+00	-2.82250E+00	4.62039E+00	-1.09440E+01
-5.70230E+00	5.56898E-01	4.61984E+00	-1.08967E+01
-4.32772E+00	3.68478E+00	4.61911E+00	-1.08498E+01
-1.43588E+00	5.45285E+00	4.61814E+00	-1.08034E+01
1.92073E+00	5.25382E+00	4.61696E+00	-1.07571E+01
4.54120E+00	3.18961E+00	4.61574E+00	-1.07109E+01
5.50524E+00	2.39049E-02	4.61466E+00	-1.06649E+01
4.49629E+00	-3.10020E+00	4.61382E+00	-1.06191E+01
1.90438E+00	-5.07231E+00	4.61312E+00	-1.05739E+01
-1.32350E+00	-5.20940E+00	4.61234E+00	-1.05292E+01
-4.02968E+00	-3.49183E+00	4.61141E+00	-1.04848E+01
-5.25993E+00	-5.59776E-01	4.61033E+00	-1.04406E+01
-4.60015E+00	2.52482E+00	4.60913E+00	-1.03966E+01
-2.31512E+00	4.66254E+00	4.60803E+00	-1.03525E+01
7.56993E-01	5.10839E+00	4.60728E+00	-1.03085E+01
3.51112E+00	3.73057E+00	4.60704E+00	-1.02648E+01
4.97288E+00	1.04815E+00	4.60721E+00	-1.02219E+01
4.64312E+00	-1.96447E+00	4.60748E+00	-1.01799E+01
2.66747E+00	-4.23064E+00	4.60741E+00	-1.01388E+01
-2.25341E-01	-4.95633E+00	4.60660E+00	-1.00983E+01
-2.99191E+00	-3.90807E+00	4.60493E+00	-1.00578E+01
-4.65067E+00	-1.48674E+00	4.60277E+00	-1.00168E+01
-4.62924E+00	1.42476E+00	4.60092E+00	-9.97499E+00
-2.96197E+00	3.78327E+00	4.60007E+00	-9.93314E+00
-2.68092E-01	4.75888E+00	4.59986E+00	-9.89228E+00
2.47833E+00	4.02677E+00	4.59910E+00	-9.85213E+00
4.29972E+00	1.87440E+00	4.59809E+00	-9.81156E+00
4.56312E+00	-9.10101E-01	4.59797E+00	-9.77085E+00
3.19973E+00	-3.32671E+00	4.59867E+00	-9.73106E+00
7.20254E-01	-4.52182E+00	4.59938E+00	-9.69257E+00
-1.97581E+00	-4.08992E+00	4.59942E+00	-9.65503E+00
-3.92623E+00	-2.21065E+00	4.59858E+00	-9.61783E+00
-4.44948E+00	4.24795E-01	4.59704E+00	-9.58044E+00
-3.38216E+00	2.86713E+00	4.59526E+00	-9.54257E+00
-1.12920E+00	4.25095E+00	4.59372E+00	-9.50430E+00
1.48922E+00	4.10109E+00	4.59269E+00	-9.46595E+00
3.53638E+00	2.49534E+00	4.59217E+00	-9.42790E+00
4.29332E+00	2.79041E-02	4.59197E+00	-9.39037E+00
3.51156E+00	-2.40993E+00	4.59184E+00	-9.35344E+00
1.49361E+00	-3.95196E+00	4.59154E+00	-9.31702E+00
-1.02319E+00	-4.06406E+00	4.59099E+00	-9.28084E+00
-3.13591E+00	-2.72922E+00	4.59034E+00	-9.24474E+00
-4.09973E+00	-4.45366E-01	4.58977E+00	-9.20877E+00
-3.59038E+00	1.96040E+00	4.58928E+00	-9.17303E+00
-1.81248E+00	3.63057E+00	4.58885E+00	-9.13758E+00
5.81450E-01	3.98302E+00	4.58842E+00	-9.10244E+00
2.73021E+00	2.91359E+00	4.58794E+00	-9.06761E+00
3.87384E+00	8.25235E-01	4.58732E+00	-9.03305E+00
3.62166E+00	-1.52310E+00	4.58657E+00	-8.99864E+00
2.08581E+00	-3.29215E+00	4.58572E+00	-8.96430E+00
-1.67145E-01	-3.86231E+00	4.58490E+00	-8.93001E+00
-2.32454E+00	-3.04995E+00	4.58418E+00	-8.89579E+00
-3.62077E+00	-1.16611E+00	4.58363E+00	-8.86174E+00
-3.60876E+00	1.10205E+00	4.58322E+00	-8.82795E+00
-2.31376E+00	2.94205E+00	4.58286E+00	-8.79449E+00
-2.16820E-01	3.70638E+00	4.58247E+00	-8.76131E+00
1.92355E+00	3.14052E+00	4.58203E+00	-8.72835E+00
3.34553E+00	1.46714E+00	4.58157E+00	-8.69558E+00
3.55516E+00	-7.01094E-01	4.58112E+00	-8.66296E+00
2.49728E+00	-2.58520E+00	4.58073E+00	-8.63056E+00
5.68531E-01	-3.51976E+00	4.58036E+00	-8.59844E+00
-1.53144E+00	-3.18783E+00	4.57987E+00	-8.56656E+00
-3.05309E+00	-1.72772E+00	4.57933E+00	-8.53478E+00
-3.46467E+00	3.23234E-01	4.57884E+00	-8.50314E+00
-2.63774E+00	2.22618E+00	4.57838E+00	-8.47172E+00
-8.86202E-01	3.30703E+00	4.57787E+00	-8.44051E+00
1.15225E+00	3.19459E+00	4.57733E+00	-8.40941E+00
2.74817E+00	1.94805E+00	4.57685E+00	-8.37847E+00
3.34121E+00	2.90171E-02	4.57635E+00	-8.34779E+00
2.73672E+00	-1.86949E+00	4.57570E+00	-8.31723E+00
1.16888E+00	-3.07268E+00	4.57506E+00	-8.28658E+00
-7.89311E-01	-3.16391E+00	4.57475E+00	-8.25596E+00
-2.43527E+00	-2.12869E+00	4.57474E+00	-8.22579E+00
-3.18876E+00	-3.53457E-01	4.57462E+00	-8.19618E+00
-2.79640E+00	1.51895E+00	4.57417E+00	-8.16683E+00
-1.41606E+00	2.82106E+00	4.57345E+00	-8.13750E+00
4.45497E-01	3.09908E+00	4.57266E+00	-8.10796E+00
2.11859E+00	2.27069E+00	4.57221E+00	-8.07834E+00
3.01138E+00	6.48300E-01	4.57210E+00	-8.04910E+00
2.81900E+00	-1.17839E+00	4.57194E+00	-8.02036E+00
1.62741E+00	-2.55657E+00	4.57151E+00	-7.99185E+00
-1.23403E-01	-3.00347E+00	4.57094E+00	-7.96336E+00
-1.80217E+00	-2.37531E+00	4.57037E+00	-7.93491E+00
-2.81301E+00	-9.12751E-01	4.56982E+00	-7.90653E+00
-2.80731E+00	8.50688E-01	4.56933E+00	-7.87822E+00
-1.80353E+00	2.28312E+00	4.56896E+00	-7.85001E+00
-1.74748E-01	2.88059E+00	4.56871E+00	-7.82201E+00
1.48980E+00	2.44418E+00	4.56852E+00	-7.79427E+00
2.59762E+00	1.14593E+00	4.56828E+00	-7.76678E+00
2.76404E+00	-5.38810E-01	4.56796E+00	-7.73947E+00
1.94499E+00	-2.00468E+00	4.56760E+00	-7.71227E+00
4.47667E-01	-2.73402E+00	4.56721E+00	-7.68520E+00
-1.18455E+00	-2.47945E+00	4.56677E+00	-7.65821E+00
-2.36913E+00	-1.34743E+00	4.56641E+00	-7.63124E+00
-2.69215E+00	2.45306E-01	4.56621E+00	-7.60445E+00
-2.05283E+00	1.72487E+00	4.56604E+00	-7.57796E+00
-6.93986E-01	2.56729E+00	4.56576E+00	-7.55169E+00
8.89547E-01	2.48324E+00	4.56539E+00	-7.52550E+00
2.13109E+00	1.51764E+00	4.56503E+00	-7.49940E+00
2.59477E+00	2.81322E-02	4.56467E+00	-7.47343E+00
2.12835E+00	-1.44718E+00	4.56429E+00	-7.44757E+00
9.12781E-01	-2.38398E+00	4.56396E+00	-7.42176E+00
-6.07561E-01	-2.45794E+00	4.56372E+00	-7.39611E+00
-1.88708E+00	-1.65689E+00	4.56353E+00	-7.37068E+00
-2.47498E+00	-2.79743E-01	4.56327E+00	-7.34547E+00
-2.17336E+00	1.17446E+00	4.56298E+00	-7.32039E+00
-1.10392E+00	2.18744E+00	4.56263E+00	-7.29550E+00
3.40598E-01	2.40620E+00	4.56213E+00	-7.27075E+00
1.64050E+00	1.76589E+00	4.56151E+00	-7.24597E+00
2.33597E+00	5.08172E-01	4.56093E+00	-7.22112E+00
2.18963E+00	-9.09615E-01	4.56049E+00	-7.19632E+00
1.26721E+00	-1.98102E+00	4.56016E+00	-7.17168E+00
-9.07235E-02	-2.33064E+00	4.55983E+00	-7.14722E+00
-1.39426E+00	-1.84593E+00	4.55949E+00	-7.12285E+00
-2.18083E+00	-7.12828E-01	4.55919E+00	-7.09858E+00
-2.17921E+00	6.55228E-01	4.55896E+00	-7.07444E+00
-1.40283E+00	1.76801E+00	4.55875E+00	-7.05045E+00
-1.40488E-01	2.23403E+00	4.55856E+00	-7.02659E+00
1.15129E+00	1.89825E+00	4.55843E+00	-7.00291E+00
2.01265E+00	8.93063E-01	4.55829E+00	-6.97946E+00
2.14438E+00	-4.13217E-01	4.55801E+00	-6.95622E+00
1.51157E+00	-1.55124E+00	4.55752E+00	-6.93301E+00
3.51685E-01	-2.11916E+00	4.55698E+00	-6.90965E+00
-9.14269E-01	-1.92436E+00	4.55669E+00	-6.88620E+00
-1.83447E+00	-1.04859E+00	4.55668E+00	-6.86299E+00
-2.08743E+00	1.85548E-01	4.55669E+00	-6.84014E+00
-1.59417E+00	1.33363E+00	4.55659E+00	-6.81752E+00
-5.42210E-01	1.98878E+00	4.55639E+00	-6.79506E+00
6.85299E-01	1.92614E+00	4.55607E+00	-6.77272E+00
1.64907E+00	1.17974E+00	4.55563E+00	-6.75041E+00
2.01077E+00	2.61387E-02	4.55514E+00	-6.72809E+00
1.65167E+00	-1.11786E+00	4.55468E+00	-6.70578E+00
7.11350E-01	-1.84565E+00	4.55425E+00	-6.68352E+00
-4.66517E-01	-1.90543E+00	4.55385E+00	-6.66131E+00
-1.45922E+00	-1.28681E+00	4.55353E+00	-6.63914E+00
