jMRUI Data Textfile
 
Filename: ETA.txt
 
PointsInDataset: 2048
DatasetsInFile: 1
SamplingInterval: 5.00000E-01
ZeroOrderPhase: 0E0
BeginTime: 0E0
TransmitterFrequency: 1.27740E+08
MagneticField: 0E0
TypeOfNucleus: 0E0
NameOfPatient: 
DateOfExperiment: 
Spectrometer: Vespa-Simulation
AdditionalInfo: see 'readme' file for Vespa-Simulation output synopsis
 
  
Signal and FFT 
sig(real)	sig(imag)	fft(real)	fft(imag)
Signal 1 out of 1 in file
2.65147E+00	6.37022E-04	1.49868E+00	-5.76234E+00
2.29570E+00	-1.21948E+00	1.49588E+00	-5.71909E+00
1.40051E+00	-2.07387E+00	1.49315E+00	-5.67651E+00
2.48776E-01	-2.35089E+00	1.49048E+00	-5.63456E+00
-8.18016E-01	-2.02975E+00	1.48787E+00	-5.59324E+00
-1.51574E+00	-1.27454E+00	1.48530E+00	-5.55251E+00
-1.70667E+00	-3.64927E-01	1.48281E+00	-5.51235E+00
-1.43141E+00	4.08285E-01	1.48039E+00	-5.47278E+00
-8.75981E-01	8.43207E-01	1.47802E+00	-5.43376E+00
-2.90008E-01	8.86926E-01	1.47572E+00	-5.39529E+00
1.10773E-01	6.36461E-01	1.47348E+00	-5.35737E+00
2.20891E-01	2.84420E-01	1.47130E+00	-5.31998E+00
7.35028E-02	3.33645E-02	1.46916E+00	-5.28313E+00
-1.86771E-01	1.31289E-02	1.46705E+00	-5.24677E+00
-3.72746E-01	2.32340E-01	1.46497E+00	-5.21089E+00
-3.36571E-01	5.80802E-01	1.46296E+00	-5.17548E+00
-3.23810E-02	8.79357E-01	1.46100E+00	-5.14053E+00
4.63712E-01	9.55912E-01	1.45910E+00	-5.10606E+00
9.82571E-01	7.17389E-01	1.45725E+00	-5.07205E+00
1.32734E+00	1.89949E-01	1.45543E+00	-5.03849E+00
1.34922E+00	-4.86982E-01	1.45364E+00	-5.00538E+00
1.00486E+00	-1.10965E+00	1.45188E+00	-4.97267E+00
3.74370E-01	-1.48255E+00	1.45015E+00	-4.94038E+00
-3.65835E-01	-1.48726E+00	1.44847E+00	-4.90849E+00
-1.00403E+00	-1.12253E+00	1.44681E+00	-4.87700E+00
-1.36499E+00	-5.02168E-01	1.44521E+00	-4.84589E+00
-1.36643E+00	1.87016E-01	1.44366E+00	-4.81517E+00
-1.04078E+00	7.50210E-01	1.44214E+00	-4.78484E+00
-5.16502E-01	1.04857E+00	1.44064E+00	-4.75490E+00
3.20713E-02	1.03958E+00	1.43916E+00	-4.72533E+00
4.46646E-01	7.81210E-01	1.43768E+00	-4.69610E+00
6.35696E-01	4.01111E-01	1.43624E+00	-4.66720E+00
5.97107E-01	4.44819E-02	1.43483E+00	-4.63862E+00
4.06840E-01	-1.78830E-01	1.43347E+00	-4.61037E+00
1.80717E-01	-2.28950E-01	1.43217E+00	-4.58246E+00
2.56731E-02	-1.41122E-01	1.43090E+00	-4.55492E+00
-6.14711E-04	-2.19929E-03	1.42961E+00	-4.52771E+00
9.27473E-02	9.03708E-02	1.42832E+00	-4.50080E+00
2.39907E-01	7.00759E-02	1.42705E+00	-4.47417E+00
3.49998E-01	-7.25036E-02	1.42582E+00	-4.44782E+00
3.46848E-01	-2.87878E-01	1.42462E+00	-4.42176E+00
2.00899E-01	-4.89419E-01	1.42346E+00	-4.39598E+00
-5.85006E-02	-5.88929E-01	1.42236E+00	-4.37050E+00
-3.54194E-01	-5.31814E-01	1.42128E+00	-4.34535E+00
-5.90267E-01	-3.18428E-01	1.42017E+00	-4.32048E+00
-6.87479E-01	-4.24555E-03	1.41906E+00	-4.29586E+00
-6.11463E-01	3.20166E-01	1.41798E+00	-4.27149E+00
-3.83849E-01	5.61174E-01	1.41691E+00	-4.24738E+00
-7.31110E-02	6.53723E-01	1.41588E+00	-4.22350E+00
2.30298E-01	5.81400E-01	1.41489E+00	-4.19987E+00
4.44808E-01	3.78563E-01	1.41392E+00	-4.17651E+00
5.23130E-01	1.15116E-01	1.41298E+00	-4.15341E+00
4.63969E-01	-1.29367E-01	1.41204E+00	-4.13057E+00
3.07065E-01	-2.92096E-01	1.41109E+00	-4.10797E+00
1.15041E-01	-3.44980E-01	1.41015E+00	-4.08558E+00
-5.02043E-02	-2.98555E-01	1.40921E+00	-4.06341E+00
-1.47724E-01	-1.92294E-01	1.40829E+00	-4.04143E+00
-1.67588E-01	-7.63177E-02	1.40743E+00	-4.01965E+00
-1.28603E-01	7.85522E-03	1.40662E+00	-3.99812E+00
-6.61144E-02	4.04581E-02	1.40582E+00	-3.97685E+00
-1.57440E-02	2.65968E-02	1.40501E+00	-3.95580E+00
3.89243E-04	-1.03995E-02	1.40419E+00	-3.93498E+00
-1.98692E-02	-4.15514E-02	1.40336E+00	-3.91434E+00
-6.09868E-02	-4.51138E-02	1.40251E+00	-3.89388E+00
-9.86998E-02	-1.47861E-02	1.40169E+00	-3.87358E+00
-1.11297E-01	3.93126E-02	1.40090E+00	-3.85346E+00
-8.85250E-02	9.63755E-02	1.40016E+00	-3.83351E+00
-3.49465E-02	1.34231E-01	1.39947E+00	-3.81377E+00
3.28852E-02	1.38237E-01	1.39883E+00	-3.79427E+00
9.35786E-02	1.06325E-01	1.39815E+00	-3.77504E+00
1.29119E-01	4.87389E-02	1.39737E+00	-3.75598E+00
1.30842E-01	-1.67245E-02	1.39658E+00	-3.73698E+00
1.01303E-01	-7.15734E-02	1.39586E+00	-3.71810E+00
5.18989E-02	-1.02729E-01	1.39523E+00	-3.69941E+00
-2.11639E-03	-1.05722E-01	1.39465E+00	-3.68094E+00
-4.69636E-02	-8.44036E-02	1.39405E+00	-3.66272E+00
-7.39748E-02	-4.79772E-02	1.39339E+00	-3.64467E+00
-8.06314E-02	-7.08369E-03	1.39270E+00	-3.62674E+00
-6.93171E-02	2.93265E-02	1.39202E+00	-3.60892E+00
-4.50331E-02	5.54125E-02	1.39139E+00	-3.59121E+00
-1.33995E-02	6.82131E-02	1.39085E+00	-3.57368E+00
2.02489E-02	6.66520E-02	1.39034E+00	-3.55640E+00
5.07037E-02	5.08220E-02	1.38973E+00	-3.53933E+00
7.24494E-02	2.21742E-02	1.38905E+00	-3.52232E+00
7.98608E-02	-1.55848E-02	1.38841E+00	-3.50538E+00
6.85129E-02	-5.56892E-02	1.38784E+00	-3.48856E+00
3.73223E-02	-8.86391E-02	1.38734E+00	-3.47190E+00
-9.51995E-03	-1.04178E-01	1.38688E+00	-3.45544E+00
-6.20812E-02	-9.46064E-02	1.38641E+00	-3.43917E+00
-1.06462E-01	-5.82373E-02	1.38590E+00	-3.42307E+00
-1.28722E-01	-1.43016E-03	1.38535E+00	-3.40709E+00
-1.19721E-01	6.20633E-02	1.38479E+00	-3.39121E+00
-7.90171E-02	1.14718E-01	1.38423E+00	-3.37543E+00
-1.60899E-02	1.40780E-01	1.38370E+00	-3.35976E+00
5.19864E-02	1.31851E-01	1.38320E+00	-3.34421E+00
1.05904E-01	9.02522E-02	1.38274E+00	-3.32880E+00
1.30648E-01	2.86971E-02	1.38228E+00	-3.31354E+00
1.20824E-01	-3.38961E-02	1.38182E+00	-3.29841E+00
8.25769E-02	-7.90361E-02	1.38136E+00	-3.28340E+00
3.12438E-02	-9.52929E-02	1.38090E+00	-3.26852E+00
-1.45110E-02	-8.23098E-02	1.38044E+00	-3.25375E+00
-3.98857E-02	-5.05925E-02	1.37999E+00	-3.23910E+00
-3.96327E-02	-1.70092E-02	1.37954E+00	-3.22455E+00
-1.99444E-02	2.28873E-03	1.37910E+00	-3.21011E+00
4.33085E-03	-1.28382E-03	1.37869E+00	-3.19580E+00
1.61279E-02	-2.48968E-02	1.37827E+00	-3.18162E+00
3.74908E-03	-5.51550E-02	1.37783E+00	-3.16754E+00
-3.34832E-02	-7.34613E-02	1.37740E+00	-3.15355E+00
-8.39133E-02	-6.38993E-02	1.37699E+00	-3.13966E+00
-1.27330E-01	-2.05309E-02	1.37659E+00	-3.12588E+00
-1.42573E-01	4.89029E-02	1.37620E+00	-3.11222E+00
-1.16110E-01	1.24520E-01	1.37580E+00	-3.09868E+00
-4.82508E-02	1.80799E-01	1.37539E+00	-3.08522E+00
4.55610E-02	1.95735E-01	1.37498E+00	-3.07185E+00
1.39139E-01	1.59243E-01	1.37459E+00	-3.05856E+00
2.04129E-01	7.76040E-02	1.37424E+00	-3.04536E+00
2.19800E-01	-2.78489E-02	1.37393E+00	-3.03228E+00
1.80383E-01	-1.27525E-01	1.37361E+00	-3.01936E+00
9.72545E-02	-1.93361E-01	1.37324E+00	-3.00656E+00
-4.87860E-03	-2.08182E-01	1.37281E+00	-2.99382E+00
-9.64168E-02	-1.71182E-01	1.37239E+00	-2.98111E+00
-1.52875E-01	-9.75880E-02	1.37202E+00	-2.96844E+00
-1.62748E-01	-1.27546E-02	1.37172E+00	-2.95587E+00
-1.30552E-01	5.70669E-02	1.37146E+00	-2.94346E+00
-7.39938E-02	9.38183E-02	1.37116E+00	-2.93119E+00
-1.65624E-02	9.32740E-02	1.37081E+00	-2.91902E+00
2.15404E-02	6.52530E-02	1.37041E+00	-2.90690E+00
3.06960E-02	2.85987E-02	1.37001E+00	-2.89480E+00
1.46909E-02	3.00040E-03	1.36967E+00	-2.88274E+00
-1.18295E-02	9.22700E-04	1.36940E+00	-2.87078E+00
-3.01052E-02	2.27564E-02	1.36915E+00	-2.85895E+00
-2.54399E-02	5.69778E-02	1.36889E+00	-2.84724E+00
6.41000E-03	8.51334E-02	1.36860E+00	-2.83565E+00
5.71220E-02	8.96158E-02	1.36826E+00	-2.82411E+00
1.08748E-01	6.11479E-02	1.36792E+00	-2.81261E+00
1.40532E-01	3.06114E-03	1.36761E+00	-2.80117E+00
1.36956E-01	-6.92759E-02	1.36731E+00	-2.78982E+00
9.39470E-02	-1.33648E-01	1.36702E+00	-2.77853E+00
2.08731E-02	-1.68864E-01	1.36675E+00	-2.76732E+00
-6.23166E-02	-1.62279E-01	1.36650E+00	-2.75620E+00
-1.31798E-01	-1.14334E-01	1.36625E+00	-2.74519E+00
-1.67876E-01	-3.84186E-02	1.36597E+00	-2.73425E+00
-1.61406E-01	4.37382E-02	1.36567E+00	-2.72338E+00
-1.16417E-01	1.09389E-01	1.36536E+00	-2.71255E+00
-4.81716E-02	1.42108E-01	1.36507E+00	-2.70176E+00
2.24743E-02	1.36616E-01	1.36481E+00	-2.69103E+00
7.61316E-02	9.95036E-02	1.36458E+00	-2.68038E+00
1.00935E-01	4.59693E-02	1.36438E+00	-2.66982E+00
9.54863E-02	-6.05888E-03	1.36419E+00	-2.65937E+00
6.79600E-02	-4.21107E-02	1.36396E+00	-2.64903E+00
3.20350E-02	-5.54829E-02	1.36370E+00	-2.63874E+00
1.41325E-03	-4.83365E-02	1.36340E+00	-2.62851E+00
-1.49907E-02	-2.95299E-02	1.36309E+00	-2.61831E+00
-1.54897E-02	-1.03232E-02	1.36277E+00	-2.60812E+00
-5.12182E-03	2.34737E-04	1.36251E+00	-2.59795E+00
7.31855E-03	-1.48916E-03	1.36232E+00	-2.58784E+00
1.33204E-02	-1.29589E-02	1.36219E+00	-2.57786E+00
8.13570E-03	-2.71829E-02	1.36204E+00	-2.56804E+00
-7.55490E-03	-3.59871E-02	1.36177E+00	-2.55830E+00
-2.82322E-02	-3.34557E-02	1.36146E+00	-2.54853E+00
-4.59517E-02	-1.82222E-02	1.36120E+00	-2.53875E+00
-5.34769E-02	6.11678E-03	1.36101E+00	-2.52904E+00
-4.69492E-02	3.24477E-02	1.36085E+00	-2.51943E+00
-2.71559E-02	5.27308E-02	1.36069E+00	-2.50994E+00
8.89206E-04	6.07084E-02	1.36047E+00	-2.50055E+00
2.97136E-02	5.37951E-02	1.36016E+00	-2.49117E+00
5.17466E-02	3.36372E-02	1.35986E+00	-2.48175E+00
6.14534E-02	5.34661E-03	1.35963E+00	-2.47232E+00
5.66103E-02	-2.41107E-02	1.35952E+00	-2.46298E+00
3.85657E-02	-4.77942E-02	1.35944E+00	-2.45381E+00
1.16055E-02	-6.03648E-02	1.35926E+00	-2.44479E+00
-1.81990E-02	-5.90734E-02	1.35898E+00	-2.43577E+00
-4.42996E-02	-4.41200E-02	1.35867E+00	-2.42672E+00
-6.08943E-02	-1.85049E-02	1.35841E+00	-2.41765E+00
-6.39754E-02	1.25193E-02	1.35823E+00	-2.40861E+00
-5.21390E-02	4.22852E-02	1.35812E+00	-2.39966E+00
-2.71081E-02	6.38937E-02	1.35802E+00	-2.39084E+00
6.24043E-03	7.16481E-02	1.35788E+00	-2.38212E+00
4.05409E-02	6.25516E-02	1.35768E+00	-2.37347E+00
6.73940E-02	3.74763E-02	1.35744E+00	-2.36483E+00
7.94442E-02	1.52184E-03	1.35719E+00	-2.35618E+00
7.25851E-02	-3.68024E-02	1.35698E+00	-2.34755E+00
4.75633E-02	-6.76261E-02	1.35679E+00	-2.33897E+00
1.03010E-02	-8.24969E-02	1.35663E+00	-2.33044E+00
-2.94443E-02	-7.71299E-02	1.35649E+00	-2.32197E+00
-6.08669E-02	-5.30658E-02	1.35635E+00	-2.31358E+00
-7.55413E-02	-1.75052E-02	1.35619E+00	-2.30526E+00
-7.03078E-02	1.88482E-02	1.35601E+00	-2.29698E+00
-4.84833E-02	4.53434E-02	1.35583E+00	-2.28873E+00
-1.87684E-02	5.51410E-02	1.35563E+00	-2.28052E+00
7.89344E-03	4.77091E-02	1.35545E+00	-2.27233E+00
