jMRUI Data Textfile
 
Filename: Gln.txt
 
PointsInDataset: 2048
DatasetsInFile: 1
SamplingInterval: 5.00000E-01
ZeroOrderPhase: 0E0
BeginTime: 0E0
TransmitterFrequency: 1.27740E+08
MagneticField: 0E0
TypeOfNucleus: 0E0
NameOfPatient: 
DateOfExperiment: 
Spectrometer: Vespa-Simulation
AdditionalInfo: see 'readme' file for Vespa-Simulation output synopsis
 
  
Signal and FFT 
sig(real)	sig(imag)	fft(real)	fft(imag)
Signal 1 out of 1 in file
5.65812E+00	-9.29177E-02	2.83222E+00	-2.79041E+00
3.30862E+00	-1.09285E+00	2.83141E+00	-2.75802E+00
-1.39296E+00	-1.43944E+00	2.83056E+00	-2.72579E+00
-4.29552E+00	-9.24690E-01	2.82976E+00	-2.69369E+00
-3.14242E+00	6.99198E-02	2.82905E+00	-2.66177E+00
5.26856E-01	7.06500E-01	2.82847E+00	-2.63009E+00
3.12964E+00	3.20451E-01	2.82797E+00	-2.59869E+00
2.49145E+00	-8.59865E-01	2.82748E+00	-2.56759E+00
-4.02960E-01	-1.69098E+00	2.82698E+00	-2.53674E+00
-2.77173E+00	-1.08738E+00	2.82644E+00	-2.50611E+00
-2.79326E+00	7.96470E-01	2.82589E+00	-2.47565E+00
-9.76393E-01	2.44493E+00	2.82535E+00	-2.44535E+00
8.51737E-01	2.29620E+00	2.82483E+00	-2.41521E+00
1.47434E+00	3.35262E-01	2.82437E+00	-2.38523E+00
1.09357E+00	-1.70206E+00	2.82396E+00	-2.35543E+00
5.58494E-01	-1.90986E+00	2.82361E+00	-2.32584E+00
2.65924E-01	-1.04087E-01	2.82326E+00	-2.29648E+00
6.78529E-03	1.91493E+00	2.82288E+00	-2.26730E+00
-3.56037E-01	2.09412E+00	2.82248E+00	-2.23826E+00
-4.79912E-01	1.58371E-01	2.82208E+00	-2.20934E+00
4.33086E-03	-2.11639E+00	2.82171E+00	-2.18054E+00
8.11332E-01	-2.66448E+00	2.82139E+00	-2.15185E+00
1.08417E+00	-1.12255E+00	2.82114E+00	-2.12331E+00
2.94088E-01	9.44281E-01	2.82095E+00	-2.09497E+00
-1.05570E+00	1.70612E+00	2.82076E+00	-2.06683E+00
-1.80578E+00	8.22732E-01	2.82052E+00	-2.03884E+00
-1.27360E+00	-4.69131E-01	2.82025E+00	-2.01096E+00
5.96482E-02	-8.32614E-01	2.81998E+00	-1.98317E+00
1.04317E+00	-1.66563E-01	2.81974E+00	-1.95545E+00
9.84641E-01	5.63981E-01	2.81956E+00	-1.92785E+00
2.20315E-01	5.97940E-01	2.81941E+00	-1.90040E+00
-3.87860E-01	1.88808E-01	2.81926E+00	-1.87308E+00
-3.69195E-01	8.62319E-02	2.81912E+00	-1.84587E+00
2.81919E-02	4.48799E-01	2.81897E+00	-1.81878E+00
3.17550E-01	5.88353E-01	2.81880E+00	-1.79179E+00
3.60194E-01	-1.13983E-01	2.81863E+00	-1.76485E+00
3.63663E-01	-1.24999E+00	2.81849E+00	-1.73797E+00
4.20425E-01	-1.63523E+00	2.81840E+00	-1.71117E+00
2.91374E-01	-6.14708E-01	2.81837E+00	-1.68448E+00
-2.34468E-01	1.03842E+00	2.81837E+00	-1.65793E+00
-8.85386E-01	1.75124E+00	2.81834E+00	-1.63153E+00
-1.03670E+00	7.53247E-01	2.81824E+00	-1.60519E+00
-3.95573E-01	-1.04468E+00	2.81812E+00	-1.57886E+00
5.46011E-01	-1.89088E+00	2.81803E+00	-1.55258E+00
9.11726E-01	-9.29868E-01	2.81798E+00	-1.52632E+00
3.48741E-01	9.52108E-01	2.81800E+00	-1.50014E+00
-5.53840E-01	2.02621E+00	2.81807E+00	-1.47406E+00
-8.52958E-01	1.40486E+00	2.81813E+00	-1.44811E+00
-2.44161E-01	-2.02020E-01	2.81814E+00	-1.42223E+00
6.26373E-01	-1.32251E+00	2.81813E+00	-1.39640E+00
8.78579E-01	-1.16638E+00	2.81811E+00	-1.37059E+00
3.45420E-01	-2.00355E-01	2.81810E+00	-1.34479E+00
-3.01519E-01	5.58267E-01	2.81812E+00	-1.31902E+00
-3.61570E-01	5.98344E-01	2.81817E+00	-1.29329E+00
9.72635E-02	2.05819E-01	2.81826E+00	-1.26761E+00
3.68904E-01	-1.13956E-01	2.81838E+00	-1.24199E+00
-1.84502E-03	-2.37863E-01	2.81849E+00	-1.21645E+00
-6.30188E-01	-3.61825E-01	2.81859E+00	-1.19095E+00
-7.17114E-01	-5.13347E-01	2.81867E+00	-1.16549E+00
-1.67705E-02	-3.93327E-01	2.81873E+00	-1.14002E+00
7.89061E-01	1.94066E-01	2.81880E+00	-1.11455E+00
7.95092E-01	8.96123E-01	2.81892E+00	-1.08908E+00
-9.84175E-02	1.02121E+00	2.81908E+00	-1.06365E+00
-9.99068E-01	2.84404E-01	2.81926E+00	-1.03827E+00
-9.36583E-01	-7.53823E-01	2.81943E+00	-1.01294E+00
9.32662E-02	-1.14542E+00	2.81958E+00	-9.87634E-01
1.09490E+00	-5.02030E-01	2.81970E+00	-9.62329E-01
1.09806E+00	5.75872E-01	2.81983E+00	-9.37007E-01
1.43917E-01	1.07937E+00	2.81996E+00	-9.11676E-01
-8.04560E-01	5.87236E-01	2.82010E+00	-8.86335E-01
-8.86994E-01	-3.62184E-01	2.82026E+00	-8.60978E-01
-1.81984E-01	-8.77239E-01	2.82045E+00	-8.35622E-01
4.96098E-01	-6.06176E-01	2.82066E+00	-8.10272E-01
5.23778E-01	2.30317E-02	2.82086E+00	-7.84919E-01
6.25971E-02	3.79537E-01	2.82109E+00	-7.59550E-01
-2.69786E-01	2.99042E-01	2.82133E+00	-7.34182E-01
-1.68822E-01	1.12506E-01	2.82157E+00	-7.08822E-01
6.95343E-02	1.11260E-01	2.82181E+00	-6.83440E-01
2.15983E-02	1.69308E-01	2.82205E+00	-6.58030E-01
-2.71807E-01	-1.63397E-02	2.82232E+00	-6.32610E-01
-3.44309E-01	-4.13312E-01	2.82258E+00	-6.07191E-01
7.27952E-02	-5.72130E-01	2.82282E+00	-5.81753E-01
6.23252E-01	-1.46860E-01	2.82303E+00	-5.56267E-01
6.62232E-01	5.89003E-01	2.82324E+00	-5.30713E-01
1.12583E-02	9.08006E-01	2.82346E+00	-5.05087E-01
-7.49539E-01	3.85083E-01	2.82372E+00	-4.79393E-01
-8.42734E-01	-5.74306E-01	2.82402E+00	-4.53647E-01
-1.27274E-01	-1.06966E+00	2.82439E+00	-4.27874E-01
7.16421E-01	-6.05884E-01	2.82479E+00	-4.02109E-01
8.75027E-01	3.87202E-01	2.82519E+00	-3.76365E-01
2.31001E-01	9.79845E-01	2.82552E+00	-3.50593E-01
-5.49961E-01	6.68428E-01	2.82582E+00	-3.24722E-01
-7.36842E-01	-1.65761E-01	2.82617E+00	-2.98771E-01
-2.59737E-01	-7.09554E-01	2.82653E+00	-2.72807E-01
3.12125E-01	-5.50685E-01	2.82683E+00	-2.46808E-01
4.41197E-01	-3.77847E-03	2.82708E+00	-2.20697E-01
1.56433E-01	3.41279E-01	2.82732E+00	-1.94434E-01
-1.04113E-01	2.66795E-01	2.82763E+00	-1.68032E-01
-7.30410E-02	5.01664E-02	2.82803E+00	-1.41550E-01
6.37014E-02	1.29128E-02	2.82849E+00	-1.15039E-01
-1.41507E-02	1.06377E-01	2.82897E+00	-8.84989E-02
-2.82837E-01	3.72612E-02	2.82943E+00	-6.19230E-02
-3.61493E-01	-2.64936E-01	2.82986E+00	-3.52678E-02
-2.18290E-03	-4.67450E-01	2.83028E+00	-8.52712E-03
5.19760E-01	-2.12764E-01	2.83068E+00	1.83328E-02
6.34212E-01	3.82294E-01	2.83111E+00	4.53161E-02
1.15715E-01	7.43214E-01	2.83155E+00	7.23918E-02
-5.93876E-01	4.28540E-01	2.83200E+00	9.95856E-02
-7.91935E-01	-3.42120E-01	2.83252E+00	1.26873E-01
-2.47763E-01	-8.45842E-01	2.83301E+00	1.54185E-01
5.31943E-01	-5.80904E-01	2.83341E+00	1.81644E-01
8.07799E-01	2.05735E-01	2.83385E+00	2.09303E-01
3.51019E-01	7.62271E-01	2.83434E+00	2.37052E-01
-3.57352E-01	5.92849E-01	2.83480E+00	2.64938E-01
-6.53463E-01	-6.99377E-02	2.83532E+00	2.93012E-01
-3.52070E-01	-5.57118E-01	2.83592E+00	3.21163E-01
1.48864E-01	-4.66511E-01	2.83648E+00	3.49371E-01
3.63045E-01	-1.45149E-02	2.83700E+00	3.77750E-01
2.13101E-01	2.89752E-01	2.83754E+00	4.06306E-01
1.60508E-03	2.19409E-01	2.83810E+00	4.35000E-01
-2.67301E-02	2.24102E-03	2.83867E+00	4.63846E-01
3.46635E-02	-4.28327E-02	2.83926E+00	4.92863E-01
-4.92432E-02	8.40813E-02	2.83988E+00	5.22029E-01
-2.72064E-01	1.05288E-01	2.84050E+00	5.51333E-01
-3.34728E-01	-1.22837E-01	2.84112E+00	5.80791E-01
-2.20655E-02	-3.66833E-01	2.84171E+00	6.10435E-01
4.51310E-01	-2.71145E-01	2.84231E+00	6.40290E-01
5.90813E-01	1.79112E-01	2.84294E+00	6.70346E-01
1.58532E-01	5.59668E-01	2.84359E+00	7.00591E-01
-5.00422E-01	4.38992E-01	2.84427E+00	7.31037E-01
-7.51621E-01	-1.23793E-01	2.84498E+00	7.61687E-01
-3.14853E-01	-5.92721E-01	2.84574E+00	7.92512E-01
4.24603E-01	-5.00679E-01	2.84650E+00	8.23485E-01
7.83871E-01	5.63076E-02	2.84721E+00	8.54657E-01
4.53825E-01	5.18678E-01	2.84789E+00	8.86104E-01
-2.20489E-01	4.50331E-01	2.84861E+00	9.17831E-01
-6.17303E-01	-2.48150E-02	2.84939E+00	9.49778E-01
-4.48438E-01	-3.96079E-01	2.85017E+00	9.81956E-01
2.68804E-02	-3.29885E-01	2.85099E+00	1.01442E+00
3.44777E-01	7.62933E-03	2.85194E+00	1.04708E+00
3.06739E-01	1.99847E-01	2.85284E+00	1.07986E+00
8.18115E-02	7.70043E-02	2.85361E+00	1.11294E+00
-8.26123E-02	-1.19225E-01	2.85443E+00	1.14638E+00
-1.37131E-01	-7.14818E-02	2.85527E+00	1.18006E+00
-1.81904E-01	1.98603E-01	2.85608E+00	1.21411E+00
-2.28357E-01	3.40547E-01	2.85701E+00	1.24851E+00
-1.36947E-01	1.03905E-01	2.85802E+00	1.28314E+00
1.62498E-01	-3.21972E-01	2.85906E+00	1.31804E+00
4.67915E-01	-4.75576E-01	2.86011E+00	1.35320E+00
4.43465E-01	-1.34257E-01	2.86111E+00	1.38865E+00
5.92195E-03	4.02557E-01	2.86209E+00	1.42447E+00
-4.91300E-01	5.93032E-01	2.86310E+00	1.46067E+00
-5.57216E-01	2.12065E-01	2.86414E+00	1.49723E+00
-8.01564E-02	-4.05391E-01	2.86521E+00	1.53418E+00
5.02180E-01	-6.93634E-01	2.86637E+00	1.57150E+00
6.11835E-01	-4.08108E-01	2.86756E+00	1.60910E+00
1.21278E-01	1.65822E-01	2.86869E+00	1.64710E+00
-5.00447E-01	5.26617E-01	2.86987E+00	1.68557E+00
-6.58271E-01	4.31783E-01	2.87112E+00	1.72444E+00
-2.31754E-01	5.78184E-02	2.87242E+00	1.76370E+00
3.23898E-01	-2.48097E-01	2.87375E+00	1.80335E+00
4.70537E-01	-2.99734E-01	2.87508E+00	1.84340E+00
1.37061E-01	-1.53438E-01	2.87638E+00	1.88389E+00
-2.52222E-01	5.15831E-02	2.87765E+00	1.92490E+00
-2.69234E-01	2.34599E-01	2.87896E+00	1.96648E+00
6.29993E-02	3.45586E-01	2.88038E+00	2.00859E+00
3.37768E-01	2.92342E-01	2.88189E+00	2.05119E+00
2.45407E-01	6.65582E-03	2.88349E+00	2.09426E+00
-8.73452E-02	-3.95558E-01	2.88512E+00	2.13781E+00
-2.66914E-01	-6.05661E-01	2.88676E+00	2.18186E+00
-9.57050E-02	-3.79297E-01	2.88838E+00	2.22648E+00
2.05523E-01	1.68494E-01	2.89002E+00	2.27170E+00
2.58559E-01	5.85739E-01	2.89170E+00	2.31754E+00
-3.60542E-02	4.81440E-01	2.89342E+00	2.36401E+00
-3.82257E-01	-7.22187E-02	2.89520E+00	2.41114E+00
-4.14758E-01	-5.68069E-01	2.89705E+00	2.45892E+00
-9.56198E-02	-5.36331E-01	2.89897E+00	2.50736E+00
2.54999E-01	1.59628E-05	2.90095E+00	2.55648E+00
3.11248E-01	5.51494E-01	2.90297E+00	2.60630E+00
7.66793E-02	6.42590E-01	2.90503E+00	2.65685E+00
-1.54724E-01	2.52400E-01	2.90713E+00	2.70817E+00
-1.38384E-01	-2.19518E-01	2.90931E+00	2.76028E+00
7.23584E-02	-3.85850E-01	2.91158E+00	2.81321E+00
2.26294E-01	-2.25177E-01	2.91393E+00	2.86694E+00
1.74256E-01	-1.08572E-02	2.91635E+00	2.92149E+00
1.50072E-02	4.21934E-02	2.91881E+00	2.97691E+00
-5.81138E-02	-1.51322E-02	2.92131E+00	3.03325E+00
-6.91088E-04	-1.31204E-02	2.92387E+00	3.09056E+00
4.41184E-02	6.55167E-02	2.92652E+00	3.14887E+00
-5.56689E-02	5.41628E-02	2.92926E+00	3.20819E+00
-2.37319E-01	-1.44502E-01	2.93212E+00	3.26858E+00
-3.01295E-01	-3.53444E-01	2.93511E+00	3.33003E+00
-1.43611E-01	-2.66011E-01	2.93819E+00	3.39255E+00
