jMRUI Data Textfile
 
Filename: GSH.txt
 
PointsInDataset: 2048
DatasetsInFile: 1
SamplingInterval: 5.00000E-01
ZeroOrderPhase: 0E0
BeginTime: 0E0
TransmitterFrequency: 1.27740E+08
MagneticField: 0E0
TypeOfNucleus: 0E0
NameOfPatient: 
DateOfExperiment: 
Spectrometer: Vespa-Simulation
AdditionalInfo: see 'readme' file for Vespa-Simulation output synopsis
 
  
Signal and FFT 
sig(real)	sig(imag)	fft(real)	fft(imag)
Signal 1 out of 1 in file
8.84820E+00	-8.80184E-02	8.87336E+00	-2.29397E+01
6.54288E+00	-3.55749E+00	8.41827E+00	-2.23337E+01
1.57316E+00	-5.17849E+00	8.02496E+00	-2.17699E+01
-2.58519E+00	-4.46624E+00	7.68425E+00	-2.12420E+01
-3.46751E+00	-2.38049E+00	7.38833E+00	-2.07463E+01
-1.40119E+00	-4.76040E-01	7.13035E+00	-2.02804E+01
1.10286E+00	2.37033E-01	6.90442E+00	-1.98420E+01
1.65424E+00	-1.58486E-01	6.70557E+00	-1.94288E+01
-7.92515E-02	-8.24612E-01	6.52973E+00	-1.90388E+01
-2.37492E+00	-9.55292E-01	6.37357E+00	-1.86701E+01
-3.18214E+00	-3.26629E-01	6.23428E+00	-1.83210E+01
-1.90880E+00	7.24555E-01	6.10951E+00	-1.79898E+01
2.71878E-01	1.69238E+00	5.99727E+00	-1.76751E+01
1.68368E+00	2.23825E+00	5.89594E+00	-1.73755E+01
1.68231E+00	2.25091E+00	5.80417E+00	-1.70899E+01
1.06237E+00	1.74073E+00	5.72082E+00	-1.68172E+01
1.08855E+00	7.84613E-01	5.64486E+00	-1.65563E+01
2.17143E+00	-4.28785E-01	5.57546E+00	-1.63065E+01
3.44559E+00	-1.58967E+00	5.51190E+00	-1.60669E+01
3.58645E+00	-2.39939E+00	5.45352E+00	-1.58369E+01
2.04907E+00	-2.75105E+00	5.39973E+00	-1.56158E+01
-4.16094E-01	-2.75731E+00	5.35008E+00	-1.54029E+01
-2.38984E+00	-2.56505E+00	5.30416E+00	-1.51976E+01
-2.93003E+00	-2.14809E+00	5.26163E+00	-1.49996E+01
-2.21285E+00	-1.33549E+00	5.22212E+00	-1.48084E+01
-1.18617E+00	-9.77034E-02	5.18535E+00	-1.46236E+01
-6.61417E-01	1.20208E+00	5.15109E+00	-1.44447E+01
-7.02224E-01	1.92663E+00	5.11910E+00	-1.42713E+01
-7.87326E-01	1.65507E+00	5.08920E+00	-1.41033E+01
-4.64493E-01	6.32479E-01	5.06126E+00	-1.39402E+01
1.94621E-01	-2.95928E-01	5.03514E+00	-1.37819E+01
7.46411E-01	-3.23139E-01	5.01058E+00	-1.36282E+01
9.04489E-01	6.03189E-01	4.98738E+00	-1.34787E+01
8.59842E-01	1.63534E+00	4.96547E+00	-1.33331E+01
1.05211E+00	1.65854E+00	4.94484E+00	-1.31913E+01
1.62725E+00	2.25528E-01	4.92542E+00	-1.30531E+01
2.14920E+00	-1.99476E+00	4.90710E+00	-1.29183E+01
1.90171E+00	-3.66636E+00	4.88981E+00	-1.27867E+01
5.49834E-01	-3.78800E+00	4.87353E+00	-1.26584E+01
-1.43769E+00	-2.42624E+00	4.85808E+00	-1.25331E+01
-3.02152E+00	-5.88118E-01	4.84331E+00	-1.24108E+01
-3.33191E+00	6.21516E-01	4.82928E+00	-1.22910E+01
-2.31759E+00	8.22517E-01	4.81593E+00	-1.21739E+01
-7.71504E-01	4.93259E-01	4.80317E+00	-1.20592E+01
2.84309E-01	3.82939E-01	4.79112E+00	-1.19468E+01
3.53353E-01	7.91813E-01	4.77972E+00	-1.18368E+01
-2.34602E-01	1.36411E+00	4.76875E+00	-1.17291E+01
-6.78024E-01	1.51839E+00	4.75823E+00	-1.16234E+01
-3.86337E-01	1.04887E+00	4.74824E+00	-1.15196E+01
5.67981E-01	3.12534E-01	4.73878E+00	-1.14178E+01
1.55812E+00	-1.49691E-01	4.72977E+00	-1.13179E+01
1.93233E+00	-1.58366E-01	4.72118E+00	-1.12199E+01
1.50770E+00	-6.30085E-02	4.71297E+00	-1.11238E+01
6.45293E-01	-3.67724E-01	4.70496E+00	-1.10294E+01
-1.05370E-01	-1.18199E+00	4.69706E+00	-1.09365E+01
-4.59083E-01	-2.03424E+00	4.68947E+00	-1.08449E+01
-5.65564E-01	-2.24351E+00	4.68239E+00	-1.07547E+01
-7.83735E-01	-1.51678E+00	4.67581E+00	-1.06661E+01
-1.28576E+00	-2.25813E-01	4.66957E+00	-1.05790E+01
-1.84757E+00	8.88424E-01	4.66348E+00	-1.04935E+01
-2.01078E+00	1.31358E+00	4.65746E+00	-1.04094E+01
-1.47825E+00	1.13200E+00	4.65152E+00	-1.03264E+01
-4.04762E-01	8.48352E-01	4.64572E+00	-1.02446E+01
6.71373E-01	8.70542E-01	4.64013E+00	-1.01638E+01
1.21229E+00	1.13699E+00	4.63484E+00	-1.00841E+01
1.07413E+00	1.22280E+00	4.62988E+00	-1.00055E+01
5.92020E-01	7.97003E-01	4.62519E+00	-9.92799E+00
2.88548E-01	-1.91485E-02	4.62070E+00	-9.85167E+00
4.45155E-01	-7.36416E-01	4.61635E+00	-9.77647E+00
8.84945E-01	-9.41082E-01	4.61207E+00	-9.70231E+00
1.13785E+00	-6.74974E-01	4.60784E+00	-9.62909E+00
8.42479E-01	-3.89029E-01	4.60373E+00	-9.55673E+00
4.71651E-02	-5.07573E-01	4.59977E+00	-9.48523E+00
-8.32885E-01	-1.00540E+00	4.59597E+00	-9.41458E+00
-1.35073E+00	-1.39418E+00	4.59233E+00	-9.34477E+00
-1.36121E+00	-1.14486E+00	4.58888E+00	-9.27581E+00
-1.07522E+00	-1.76029E-01	4.58558E+00	-9.20775E+00
-8.12251E-01	1.02683E+00	4.58232E+00	-9.14055E+00
-6.93379E-01	1.77265E+00	4.57909E+00	-9.07411E+00
-5.57904E-01	1.70018E+00	4.57591E+00	-9.00836E+00
-1.70052E-01	1.03374E+00	4.57285E+00	-8.94327E+00
4.90394E-01	3.55830E-01	4.56993E+00	-8.87886E+00
1.13925E+00	1.09586E-01	4.56714E+00	-8.81515E+00
1.40038E+00	2.62561E-01	4.56447E+00	-8.75214E+00
1.13377E+00	4.02163E-01	4.56189E+00	-8.68984E+00
5.76033E-01	1.49820E-01	4.55934E+00	-8.62820E+00
1.51102E-01	-4.86035E-01	4.55684E+00	-8.56716E+00
1.07732E-01	-1.12074E+00	4.55443E+00	-8.50670E+00
3.05422E-01	-1.33685E+00	4.55211E+00	-8.44685E+00
3.47103E-01	-1.04030E+00	4.54984E+00	-8.38759E+00
-5.12881E-02	-5.16127E-01	4.54761E+00	-8.32887E+00
-7.79795E-01	-1.51754E-01	4.54547E+00	-8.27069E+00
-1.39591E+00	-9.13220E-02	4.54340E+00	-8.21305E+00
-1.48192E+00	-1.34034E-01	4.54139E+00	-8.15593E+00
-9.89552E-01	4.22265E-02	4.53944E+00	-8.09934E+00
-2.72594E-01	5.46242E-01	4.53753E+00	-8.04323E+00
2.17113E-01	1.13692E+00	4.53569E+00	-7.98759E+00
3.00663E-01	1.41104E+00	4.53391E+00	-7.93245E+00
1.86484E-01	1.14728E+00	4.53215E+00	-7.87777E+00
2.37617E-01	5.00451E-01	4.53044E+00	-7.82347E+00
6.09912E-01	-1.25219E-01	4.52890E+00	-7.76962E+00
1.09001E+00	-4.10065E-01	4.52743E+00	-7.71632E+00
1.27643E+00	-3.66019E-01	4.52589E+00	-7.66352E+00
9.38360E-01	-2.84652E-01	4.52432E+00	-7.61104E+00
2.29643E-01	-4.40770E-01	4.52284E+00	-7.55892E+00
-4.31072E-01	-8.21850E-01	4.52137E+00	-7.50725E+00
-7.04404E-01	-1.12592E+00	4.51986E+00	-7.45588E+00
-5.93048E-01	-1.02974E+00	4.51849E+00	-7.40474E+00
-3.98367E-01	-4.87658E-01	4.51732E+00	-7.35406E+00
-4.22073E-01	2.06497E-01	4.51614E+00	-7.30389E+00
-6.87334E-01	6.53002E-01	4.51488E+00	-7.25407E+00
-9.25748E-01	6.72669E-01	4.51361E+00	-7.20451E+00
-8.31300E-01	4.40812E-01	4.51242E+00	-7.15527E+00
-3.44915E-01	3.11621E-01	4.51118E+00	-7.10635E+00
2.85143E-01	4.88436E-01	4.50999E+00	-7.05758E+00
7.12769E-01	8.31567E-01	4.50905E+00	-7.00910E+00
7.78100E-01	9.75898E-01	4.50821E+00	-6.96112E+00
6.13241E-01	6.57465E-01	4.50727E+00	-6.91353E+00
4.86664E-01	-3.69441E-02	4.50627E+00	-6.86618E+00
5.40589E-01	-7.19212E-01	4.50532E+00	-6.81908E+00
6.63332E-01	-1.00943E+00	4.50434E+00	-6.77228E+00
6.06351E-01	-8.38853E-01	4.50331E+00	-6.72565E+00
2.30610E-01	-4.83757E-01	4.50240E+00	-6.67915E+00
-3.46208E-01	-3.03372E-01	4.50165E+00	-6.63296E+00
-8.32262E-01	-4.14481E-01	4.50093E+00	-6.58712E+00
-9.94503E-01	-5.91635E-01	4.50016E+00	-6.54157E+00
-8.32049E-01	-4.83270E-01	4.49937E+00	-6.49622E+00
-5.43717E-01	4.69865E-02	4.49860E+00	-6.45108E+00
-3.34046E-01	7.59123E-01	4.49781E+00	-6.40615E+00
-2.42777E-01	1.20740E+00	4.49700E+00	-6.36138E+00
-1.47754E-01	1.10399E+00	4.49626E+00	-6.31670E+00
7.69475E-02	5.63041E-01	4.49567E+00	-6.27220E+00
4.10482E-01	1.07538E-02	4.49519E+00	-6.22798E+00
6.88454E-01	-1.67176E-01	4.49474E+00	-6.18405E+00
7.54322E-01	5.81110E-02	4.49427E+00	-6.14038E+00
6.09462E-01	3.47814E-01	4.49375E+00	-6.09694E+00
4.13344E-01	2.97765E-01	4.49314E+00	-6.05370E+00
3.28841E-01	-2.05934E-01	4.49242E+00	-6.01052E+00
3.57981E-01	-8.80420E-01	4.49174E+00	-5.96734E+00
3.28710E-01	-1.27404E+00	4.49121E+00	-5.92424E+00
5.66968E-02	-1.12921E+00	4.49080E+00	-5.88136E+00
-4.58292E-01	-5.72169E-01	4.49040E+00	-5.83870E+00
-9.82553E-01	1.86938E-02	4.48999E+00	-5.79620E+00
-1.20357E+00	3.34373E-01	4.48956E+00	-5.75386E+00
-9.69344E-01	3.60792E-01	4.48908E+00	-5.71163E+00
-4.13365E-01	3.24677E-01	4.48856E+00	-5.66942E+00
1.40463E-01	4.33233E-01	4.48812E+00	-5.62719E+00
4.16975E-01	6.61923E-01	4.48790E+00	-5.58500E+00
3.79772E-01	7.84622E-01	4.48788E+00	-5.54307E+00
2.24988E-01	6.07285E-01	4.48790E+00	-5.50146E+00
1.95839E-01	1.74984E-01	4.48780E+00	-5.46009E+00
3.77377E-01	-2.49288E-01	4.48760E+00	-5.41886E+00
6.36307E-01	-4.17362E-01	4.48723E+00	-5.37780E+00
7.43195E-01	-3.20685E-01	4.48659E+00	-5.33663E+00
5.65648E-01	-1.92502E-01	4.48600E+00	-5.29516E+00
1.72379E-01	-2.80234E-01	4.48573E+00	-5.25364E+00
-2.28956E-01	-5.98943E-01	4.48567E+00	-5.21235E+00
-4.58807E-01	-8.98824E-01	4.48553E+00	-5.17130E+00
-4.96475E-01	-8.82731E-01	4.48525E+00	-5.13015E+00
-4.71072E-01	-4.76078E-01	4.48517E+00	-5.08889E+00
-5.27358E-01	9.99659E-02	4.48530E+00	-5.04775E+00
-6.81594E-01	5.18902E-01	4.48558E+00	-5.00685E+00
-7.89773E-01	6.25145E-01	4.48580E+00	-4.96625E+00
-6.58914E-01	5.38602E-01	4.48580E+00	-4.92579E+00
-2.17564E-01	4.95283E-01	4.48557E+00	-4.88530E+00
3.90324E-01	5.85210E-01	4.48523E+00	-4.84462E+00
8.71587E-01	6.49825E-01	4.48492E+00	-4.80378E+00
9.74404E-01	4.48030E-01	4.48472E+00	-4.76277E+00
6.67707E-01	-6.50335E-02	4.48475E+00	-4.72172E+00
1.73329E-01	-6.27392E-01	4.48493E+00	-4.68079E+00
-1.83990E-01	-8.61651E-01	4.48511E+00	-4.63995E+00
-2.06732E-01	-6.13829E-01	4.48531E+00	-4.59916E+00
3.40476E-02	-1.24618E-01	4.48545E+00	-4.55842E+00
2.56101E-01	1.50332E-01	4.48553E+00	-4.51762E+00
1.84409E-01	-6.26377E-02	4.48560E+00	-4.47674E+00
-2.33048E-01	-5.89160E-01	4.48571E+00	-4.43577E+00
-7.77839E-01	-9.25048E-01	4.48586E+00	-4.39475E+00
-1.11921E+00	-6.58378E-01	4.48604E+00	-4.35368E+00
-1.05393E+00	1.62299E-01	4.48626E+00	-4.31255E+00
-6.41150E-01	1.03808E+00	4.48653E+00	-4.27138E+00
-1.33699E-01	1.40933E+00	4.48680E+00	-4.23019E+00
2.25379E-01	1.09603E+00	4.48704E+00	-4.18895E+00
3.67828E-01	4.16613E-01	4.48722E+00	-4.14761E+00
3.97145E-01	-1.04669E-01	4.48740E+00	-4.10609E+00
4.43333E-01	-1.76319E-01	4.48764E+00	-4.06440E+00
5.21761E-01	5.57740E-02	4.48796E+00	-4.02260E+00
5.28165E-01	1.96338E-01	4.48834E+00	-3.98071E+00
3.64638E-01	-1.10929E-02	4.48875E+00	-3.93873E+00
6.41457E-02	-4.52641E-01	4.48919E+00	-3.89665E+00
-2.16286E-01	-7.65611E-01	4.48963E+00	-3.85447E+00
-3.32797E-01	-6.81662E-01	4.49005E+00	-3.81213E+00
