jMRUI Data Textfile
 
Filename: Lac.txt
 
PointsInDataset: 2048
DatasetsInFile: 1
SamplingInterval: 5.00000E-01
ZeroOrderPhase: 0E0
BeginTime: 0E0
TransmitterFrequency: 1.27740E+08
MagneticField: 0E0
TypeOfNucleus: 0E0
NameOfPatient: 
DateOfExperiment: 
Spectrometer: Vespa-Simulation
AdditionalInfo: see 'readme' file for Vespa-Simulation output synopsis
 
  
Signal and FFT 
sig(real)	sig(imag)	fft(real)	fft(imag)
Signal 1 out of 1 in file
2.77291E+00	2.09305E-02	1.64428E+00	-3.24968E+00
9.31955E-01	-2.34927E+00	1.63779E+00	-3.22260E+00
-1.67751E+00	-1.16857E+00	1.63174E+00	-3.19578E+00
-1.05929E+00	1.48042E+00	1.62622E+00	-3.16982E+00
1.61210E+00	1.33293E+00	1.62050E+00	-3.14460E+00
1.99797E+00	-1.35843E+00	1.61488E+00	-3.11943E+00
-5.52690E-01	-2.36838E+00	1.60987E+00	-3.09477E+00
-2.11199E+00	-1.94308E-01	1.60496E+00	-3.07088E+00
-4.20439E-01	1.70523E+00	1.59999E+00	-3.04736E+00
1.67375E+00	4.47810E-01	1.59526E+00	-3.02408E+00
8.20860E-01	-1.82827E+00	1.59089E+00	-3.00128E+00
-1.61419E+00	-1.46837E+00	1.58663E+00	-2.97907E+00
-1.83931E+00	9.70301E-01	1.58238E+00	-2.95723E+00
3.97101E-01	1.73246E+00	1.57827E+00	-2.93566E+00
1.54839E+00	-2.01822E-01	1.57443E+00	-2.91447E+00
-9.36675E-02	-1.64701E+00	1.57069E+00	-2.89377E+00
-1.82823E+00	-3.12888E-01	1.56698E+00	-2.87342E+00
-9.04788E-01	1.68124E+00	1.56336E+00	-2.85334E+00
1.21202E+00	1.26059E+00	1.55992E+00	-2.83358E+00
1.27364E+00	-8.08650E-01	1.55658E+00	-2.81420E+00
-6.58525E-01	-1.26052E+00	1.55325E+00	-2.79511E+00
-1.44906E+00	5.17837E-01	1.55002E+00	-2.77620E+00
1.31019E-01	1.65250E+00	1.54701E+00	-2.75755E+00
1.58309E+00	3.76840E-01	1.54417E+00	-2.73927E+00
7.01317E-01	-1.28251E+00	1.54140E+00	-2.72133E+00
-1.03293E+00	-7.98561E-01	1.53872E+00	-2.70368E+00
-9.01864E-01	9.34822E-01	1.53612E+00	-2.68635E+00
7.98618E-01	1.14000E+00	1.53352E+00	-2.66935E+00
1.35523E+00	-4.69164E-01	1.53090E+00	-2.65256E+00
-6.22510E-02	-1.35964E+00	1.52833E+00	-2.63590E+00
-1.20676E+00	-2.17334E-01	1.52591E+00	-2.61945E+00
-3.62585E-01	1.08579E+00	1.52358E+00	-2.60327E+00
1.03906E+00	5.30924E-01	1.52130E+00	-2.58731E+00
7.82253E-01	-9.31499E-01	1.51910E+00	-2.57155E+00
-6.80542E-01	-9.95770E-01	1.51700E+00	-2.55604E+00
-1.05993E+00	3.79631E-01	1.51493E+00	-2.54078E+00
1.53701E-01	1.02402E+00	1.51287E+00	-2.52571E+00
1.00095E+00	7.42972E-03	1.51087E+00	-2.51079E+00
1.97339E-01	-9.98545E-01	1.50896E+00	-2.49607E+00
-9.31175E-01	-4.32535E-01	1.50712E+00	-2.48156E+00
-6.30700E-01	7.64463E-01	1.50532E+00	-2.46725E+00
5.63800E-01	7.34721E-01	1.50356E+00	-2.45314E+00
7.80545E-01	-3.94377E-01	1.50185E+00	-2.43921E+00
-2.42198E-01	-8.23075E-01	1.50016E+00	-2.42547E+00
-8.53472E-01	6.32730E-02	1.49850E+00	-2.41189E+00
-1.35615E-01	8.26937E-01	1.49687E+00	-2.39848E+00
7.37615E-01	3.07087E-01	1.49525E+00	-2.38519E+00
4.29637E-01	-6.22823E-01	1.49372E+00	-2.37205E+00
-5.06787E-01	-5.22493E-01	1.49224E+00	-2.35909E+00
-6.00395E-01	3.79453E-01	1.49078E+00	-2.34629E+00
2.31819E-01	6.49893E-01	1.48933E+00	-2.33363E+00
6.56808E-01	-7.96405E-02	1.48794E+00	-2.32110E+00
5.79129E-02	-6.29137E-01	1.48658E+00	-2.30874E+00
-5.80275E-01	-1.79870E-01	1.48522E+00	-2.29651E+00
-2.89737E-01	5.09419E-01	1.48389E+00	-2.28436E+00
4.13779E-01	3.77759E-01	1.48266E+00	-2.27234E+00
4.32901E-01	-3.05896E-01	1.48148E+00	-2.26051E+00
-2.01674E-01	-4.61218E-01	1.48029E+00	-2.24883E+00
-4.74825E-01	1.00213E-01	1.47913E+00	-2.23728E+00
-6.94164E-03	4.69627E-01	1.47798E+00	-2.22586E+00
4.32296E-01	1.11296E-01	1.47682E+00	-2.21456E+00
1.91136E-01	-3.67274E-01	1.47568E+00	-2.20335E+00
-2.97630E-01	-2.40748E-01	1.47458E+00	-2.19223E+00
-2.77142E-01	2.35085E-01	1.47355E+00	-2.18122E+00
1.66913E-01	3.11102E-01	1.47254E+00	-2.17039E+00
3.28156E-01	-8.23743E-02	1.47149E+00	-2.15967E+00
2.79036E-03	-3.11206E-01	1.47045E+00	-2.14902E+00
-2.69916E-01	-6.39304E-02	1.46944E+00	-2.13845E+00
-1.00573E-01	2.29862E-01	1.46848E+00	-2.12798E+00
1.97580E-01	1.33408E-01	1.46752E+00	-2.11762E+00
1.69709E-01	-1.55658E-01	1.46659E+00	-2.10731E+00
-9.50080E-02	-1.91051E-01	1.46576E+00	-2.09712E+00
-1.81855E-01	3.38769E-02	1.46495E+00	-2.08712E+00
-5.50117E-03	1.54221E-01	1.46406E+00	-2.07722E+00
1.31274E-01	2.62168E-02	1.46316E+00	-2.06735E+00
4.76586E-02	-1.15487E-01	1.46234E+00	-2.05753E+00
-8.99597E-02	-7.36545E-02	1.46158E+00	-2.04785E+00
-8.65914E-02	4.87185E-02	1.46080E+00	-2.03830E+00
8.99318E-03	7.47570E-02	1.46000E+00	-2.02882E+00
5.01943E-02	1.17617E-02	1.45922E+00	-2.01940E+00
1.80111E-02	-3.13717E-02	1.45845E+00	-2.01009E+00
-1.86083E-02	-2.52529E-02	1.45768E+00	-2.00086E+00
-3.49057E-02	-1.49189E-03	1.45688E+00	-1.99168E+00
-3.18487E-02	3.28216E-02	1.45614E+00	-1.98251E+00
1.14312E-02	5.81049E-02	1.45546E+00	-1.97346E+00
6.76196E-02	1.88004E-02	1.45478E+00	-1.96451E+00
4.41271E-02	-6.45456E-02	1.45409E+00	-1.95562E+00
-5.99466E-02	-6.47565E-02	1.45343E+00	-1.94679E+00
-8.97921E-02	5.38929E-02	1.45280E+00	-1.93804E+00
3.60946E-02	1.19722E-01	1.45220E+00	-1.92939E+00
1.43038E-01	-2.27984E-03	1.45158E+00	-1.92080E+00
3.87848E-02	-1.50638E-01	1.45099E+00	-1.91226E+00
-1.45838E-01	-7.68287E-02	1.45044E+00	-1.90382E+00
-1.12041E-01	1.36201E-01	1.44990E+00	-1.89550E+00
1.20707E-01	1.50278E-01	1.44931E+00	-1.88725E+00
1.89972E-01	-9.14010E-02	1.44871E+00	-1.87904E+00
-4.62569E-02	-2.20727E-01	1.44814E+00	-1.87089E+00
-2.35385E-01	-6.27678E-03	1.44757E+00	-1.86283E+00
-5.77706E-02	2.37397E-01	1.44696E+00	-1.85481E+00
2.32537E-01	1.09373E-01	1.44635E+00	-1.84680E+00
1.65919E-01	-2.17685E-01	1.44579E+00	-1.83882E+00
-1.84328E-01	-2.23346E-01	1.44526E+00	-1.83094E+00
-2.69377E-01	1.32228E-01	1.44471E+00	-1.82311E+00
7.21742E-02	2.97735E-01	1.44416E+00	-1.81529E+00
3.14519E-01	-1.20453E-02	1.44368E+00	-1.80751E+00
5.29651E-02	-3.25451E-01	1.44324E+00	-1.79983E+00
-3.22826E-01	-1.29311E-01	1.44279E+00	-1.79220E+00
-2.08775E-01	2.94126E-01	1.44239E+00	-1.78460E+00
2.41630E-01	2.73599E-01	1.44208E+00	-1.77711E+00
3.18599E-01	-1.81918E-01	1.44178E+00	-1.76982E+00
-1.22568E-01	-3.56216E-01	1.44136E+00	-1.76271E+00
-3.93251E-01	5.10750E-02	1.44070E+00	-1.75561E+00
-4.30399E-02	4.13583E-01	1.43998E+00	-1.74832E+00
3.97486E-01	1.44432E-01	1.43936E+00	-1.74094E+00
2.26372E-01	-3.51935E-01	1.43886E+00	-1.73357E+00
-3.03094E-01	-2.86563E-01	1.43846E+00	-1.72620E+00
-3.48276E-01	2.56932E-01	1.43823E+00	-1.71891E+00
1.88287E-01	4.19308E-01	1.43815E+00	-1.71184E+00
4.70360E-01	-8.13211E-02	1.43800E+00	-1.70507E+00
3.73833E-02	-4.72305E-01	1.43760E+00	-1.69842E+00
-4.40480E-01	-1.29560E-01	1.43706E+00	-1.69168E+00
-1.99263E-01	4.14012E-01	1.43654E+00	-1.68487E+00
3.94426E-01	2.85082E-01	1.43603E+00	-1.67805E+00
3.94328E-01	-3.38612E-01	1.43557E+00	-1.67122E+00
-2.25558E-01	-4.79351E-01	1.43517E+00	-1.66440E+00
-5.01013E-01	9.79426E-02	1.43483E+00	-1.65765E+00
6.83900E-03	4.87954E-01	1.43450E+00	-1.65096E+00
4.94655E-01	6.32643E-02	1.43419E+00	-1.64430E+00
1.70117E-01	-5.13789E-01	1.43393E+00	-1.63772E+00
-4.79560E-01	-3.17453E-01	1.43369E+00	-1.63124E+00
-4.34320E-01	3.67836E-01	1.43340E+00	-1.62484E+00
2.42387E-01	4.73032E-01	1.43306E+00	-1.61847E+00
4.81200E-01	-1.66509E-01	1.43274E+00	-1.61211E+00
-1.07173E-01	-5.29578E-01	1.43241E+00	-1.60580E+00
-5.96415E-01	-1.51111E-02	1.43206E+00	-1.59954E+00
-1.95905E-01	5.89758E-01	1.43170E+00	-1.59327E+00
4.86117E-01	3.37161E-01	1.43137E+00	-1.58702E+00
3.86066E-01	-3.75055E-01	1.43106E+00	-1.58083E+00
-3.29545E-01	-4.14981E-01	1.43073E+00	-1.57470E+00
-5.10075E-01	2.92511E-01	1.43037E+00	-1.56857E+00
1.61966E-01	6.28954E-01	1.43002E+00	-1.56243E+00
6.51796E-01	4.38883E-02	1.42973E+00	-1.55631E+00
1.97438E-01	-5.61268E-01	1.42945E+00	-1.55025E+00
-4.76456E-01	-2.46135E-01	1.42917E+00	-1.54423E+00
-2.92524E-01	4.75374E-01	1.42892E+00	-1.53823E+00
4.70786E-01	4.35214E-01	1.42870E+00	-1.53230E+00
6.04988E-01	-3.39576E-01	1.42846E+00	-1.52646E+00
-1.19913E-01	-6.54702E-01	1.42816E+00	-1.52064E+00
-5.79849E-01	-3.05991E-02	1.42785E+00	-1.51478E+00
-6.66231E-02	5.31171E-01	1.42761E+00	-1.50894E+00
5.85678E-01	1.24827E-01	1.42740E+00	-1.50319E+00
3.11763E-01	-6.20706E-01	1.42714E+00	-1.49749E+00
-4.95689E-01	-5.25694E-01	1.42688E+00	-1.49177E+00
-5.95153E-01	2.74937E-01	1.42669E+00	-1.48612E+00
1.44247E-01	5.35717E-01	1.42644E+00	-1.48059E+00
5.30021E-01	-1.33913E-01	1.42604E+00	-1.47504E+00
-7.08485E-02	-6.46764E-01	1.42566E+00	-1.46933E+00
-7.24477E-01	-1.53014E-01	1.42549E+00	-1.46359E+00
-3.99387E-01	6.10781E-01	1.42542E+00	-1.45806E+00
4.01630E-01	4.77708E-01	1.42523E+00	-1.45269E+00
4.30713E-01	-3.07047E-01	1.42495E+00	-1.44727E+00
-3.34223E-01	-4.71064E-01	1.42467E+00	-1.44185E+00
-6.51327E-01	2.73613E-01	1.42438E+00	-1.43642E+00
2.29849E-02	7.69960E-01	1.42411E+00	-1.43097E+00
6.70223E-01	2.40324E-01	1.42390E+00	-1.42552E+00
3.13934E-01	-4.84054E-01	1.42378E+00	-1.42013E+00
-4.39472E-01	-2.74233E-01	1.42367E+00	-1.41488E+00
-3.59692E-01	5.13202E-01	1.42347E+00	-1.40970E+00
4.61593E-01	5.99111E-01	1.42321E+00	-1.40454E+00
7.52113E-01	-1.96176E-01	1.42286E+00	-1.39935E+00
6.64285E-02	-6.66192E-01	1.42252E+00	-1.39403E+00
-5.11770E-01	-1.20834E-01	1.42235E+00	-1.38868E+00
-8.17972E-02	5.27229E-01	1.42229E+00	-1.38347E+00
6.52524E-01	2.07737E-01	1.42218E+00	-1.37840E+00
4.96696E-01	-6.14729E-01	1.42198E+00	-1.37339E+00
-3.46956E-01	-6.73288E-01	1.42173E+00	-1.36835E+00
-5.98326E-01	1.02993E-01	1.42147E+00	-1.36328E+00
8.16394E-02	4.81160E-01	1.42123E+00	-1.35819E+00
5.61663E-01	-1.26910E-01	1.42103E+00	-1.35311E+00
3.17370E-02	-7.38782E-01	1.42090E+00	-1.34805E+00
-7.17210E-01	-3.56352E-01	1.42080E+00	-1.34307E+00
-5.42662E-01	4.58660E-01	1.42068E+00	-1.33819E+00
2.49753E-01	4.73557E-01	1.42050E+00	-1.33335E+00
3.95548E-01	-2.73015E-01	1.42025E+00	-1.32850E+00
-3.30760E-01	-5.40673E-01	1.42000E+00	-1.32361E+00
-7.64871E-01	1.49085E-01	1.41977E+00	-1.31870E+00
-1.94451E-01	7.59114E-01	1.41958E+00	-1.31378E+00
5.19528E-01	3.74798E-01	1.41947E+00	-1.30889E+00
3.05015E-01	-3.58965E-01	1.41940E+00	-1.30409E+00
-4.34786E-01	-2.64580E-01	1.41930E+00	-1.29939E+00
-4.68607E-01	5.09620E-01	1.41914E+00	-1.29472E+00
