jMRUI Data Textfile
 
Filename: mI.txt
 
PointsInDataset: 2048
DatasetsInFile: 1
SamplingInterval: 5.00000E-01
ZeroOrderPhase: 0E0
BeginTime: 0E0
TransmitterFrequency: 1.27740E+08
MagneticField: 0E0
TypeOfNucleus: 0E0
NameOfPatient: 
DateOfExperiment: 
Spectrometer: Vespa-Simulation
AdditionalInfo: see 'readme' file for Vespa-Simulation output synopsis
 
  
Signal and FFT 
sig(real)	sig(imag)	fft(real)	fft(imag)
Signal 1 out of 1 in file
5.39182E+00	-1.28368E-01	2.70371E+00	-1.29424E+01
4.76692E+00	-2.37312E+00	2.70066E+00	-1.28371E+01
3.23613E+00	-4.08493E+00	2.69773E+00	-1.27335E+01
1.15095E+00	-4.92327E+00	2.69491E+00	-1.26317E+01
-1.02679E+00	-4.75333E+00	2.69219E+00	-1.25316E+01
-2.83604E+00	-3.66940E+00	2.68955E+00	-1.24331E+01
-3.92279E+00	-1.96225E+00	2.68702E+00	-1.23362E+01
-4.11544E+00	-4.13799E-02	2.68461E+00	-1.22408E+01
-3.45245E+00	1.66654E+00	2.68228E+00	-1.21470E+01
-2.15846E+00	2.81640E+00	2.68001E+00	-1.20546E+01
-5.78235E-01	3.21701E+00	2.67784E+00	-1.19637E+01
9.11972E-01	2.86123E+00	2.67576E+00	-1.18741E+01
1.99262E+00	1.91078E+00	2.67374E+00	-1.17860E+01
2.46744E+00	6.43273E-01	2.67179E+00	-1.16991E+01
2.29476E+00	-6.21884E-01	2.66992E+00	-1.16135E+01
1.58037E+00	-1.59892E+00	2.66813E+00	-1.15293E+01
5.37877E-01	-2.09483E+00	2.66638E+00	-1.14462E+01
-5.69723E-01	-2.04066E+00	2.66470E+00	-1.13643E+01
-1.49184E+00	-1.49182E+00	2.66309E+00	-1.12837E+01
-2.04105E+00	-6.01790E-01	2.66152E+00	-1.12042E+01
-2.12348E+00	4.20614E-01	2.66002E+00	-1.11258E+01
-1.74617E+00	1.35896E+00	2.65858E+00	-1.10485E+01
-1.00376E+00	2.03109E+00	2.65719E+00	-1.09722E+01
-5.11754E-02	2.31837E+00	2.65587E+00	-1.08971E+01
9.30016E-01	2.17933E+00	2.65459E+00	-1.08230E+01
1.76454E+00	1.64878E+00	2.65334E+00	-1.07498E+01
2.31088E+00	8.25422E-01	2.65214E+00	-1.06777E+01
2.48054E+00	-1.48132E-01	2.65099E+00	-1.06065E+01
2.24850E+00	-1.10920E+00	2.64985E+00	-1.05363E+01
1.65471E+00	-1.90005E+00	2.64874E+00	-1.04670E+01
7.97191E-01	-2.39164E+00	2.64767E+00	-1.03986E+01
-1.82844E-01	-2.50369E+00	2.64662E+00	-1.03311E+01
-1.12276E+00	-2.21860E+00	2.64559E+00	-1.02645E+01
-1.86501E+00	-1.58638E+00	2.64457E+00	-1.01986E+01
-2.28501E+00	-7.18351E-01	2.64362E+00	-1.01336E+01
-2.31498E+00	2.30587E-01	2.64271E+00	-1.00694E+01
-1.95900E+00	1.08985E+00	2.64185E+00	-1.00059E+01
-1.29456E+00	1.70599E+00	2.64103E+00	-9.94329E+00
-4.58872E-01	1.97411E+00	2.64027E+00	-9.88140E+00
3.78519E-01	1.86077E+00	2.63955E+00	-9.82030E+00
1.05137E+00	1.41185E+00	2.63884E+00	-9.75997E+00
1.43317E+00	7.42906E-01	2.63814E+00	-9.70037E+00
1.46502E+00	1.33276E-02	2.63743E+00	-9.64147E+00
1.16854E+00	-6.10433E-01	2.63673E+00	-9.58325E+00
6.39565E-01	-9.93311E-01	2.63605E+00	-9.52570E+00
2.41827E-02	-1.06290E+00	2.63539E+00	-9.46881E+00
-5.17242E-01	-8.25210E-01	2.63476E+00	-9.41254E+00
-8.49245E-01	-3.61244E-01	2.63417E+00	-9.35691E+00
-8.93596E-01	1.94812E-01	2.63363E+00	-9.30191E+00
-6.46944E-01	6.89997E-01	2.63313E+00	-9.24755E+00
-1.79529E-01	9.90922E-01	2.63265E+00	-9.19384E+00
3.84213E-01	1.01607E+00	2.63216E+00	-9.14073E+00
8.97919E-01	7.54403E-01	2.63168E+00	-9.08821E+00
1.22968E+00	2.65985E-01	2.63120E+00	-9.03626E+00
1.29362E+00	-3.34883E-01	2.63074E+00	-8.98487E+00
1.06893E+00	-9.08792E-01	2.63030E+00	-8.93401E+00
6.02283E-01	-1.32522E+00	2.62989E+00	-8.88371E+00
-5.75164E-03	-1.49246E+00	2.62950E+00	-8.83395E+00
-6.26375E-01	-1.37682E+00	2.62913E+00	-8.78473E+00
-1.13301E+00	-1.00710E+00	2.62878E+00	-8.73604E+00
-1.42914E+00	-4.64508E-01	2.62842E+00	-8.68787E+00
-1.46732E+00	1.38638E-01	2.62807E+00	-8.64020E+00
-1.25566E+00	6.85122E-01	2.62772E+00	-8.59300E+00
-8.51452E-01	1.07805E+00	2.62739E+00	-8.54627E+00
-3.44980E-01	1.25898E+00	2.62710E+00	-8.50003E+00
1.62176E-01	1.21624E+00	2.62682E+00	-8.45426E+00
5.78906E-01	9.82421E-01	2.62656E+00	-8.40896E+00
8.41432E-01	6.23019E-01	2.62632E+00	-8.36413E+00
9.22921E-01	2.19825E-01	2.62607E+00	-8.31976E+00
8.34420E-01	-1.46987E-01	2.62583E+00	-8.27583E+00
6.18245E-01	-4.14348E-01	2.62558E+00	-8.23232E+00
3.36142E-01	-5.46370E-01	2.62535E+00	-8.18923E+00
5.51754E-02	-5.38278E-01	2.62515E+00	-8.14655E+00
-1.65857E-01	-4.13946E-01	2.62498E+00	-8.10431E+00
-2.86898E-01	-2.18387E-01	2.62480E+00	-8.06249E+00
-2.92809E-01	-7.12034E-03	2.62461E+00	-8.02108E+00
-1.94423E-01	1.65530E-01	2.62443E+00	-7.98007E+00
-2.47828E-02	2.57154E-01	2.62422E+00	-7.93945E+00
1.68475E-01	2.45176E-01	2.62399E+00	-7.89917E+00
3.33210E-01	1.30901E-01	2.62380E+00	-7.85923E+00
4.23538E-01	-6.10332E-02	2.62364E+00	-7.81966E+00
4.09373E-01	-2.87736E-01	2.62351E+00	-7.78044E+00
2.82970E-01	-4.96653E-01	2.62344E+00	-7.74161E+00
6.12154E-02	-6.36382E-01	2.62337E+00	-7.70318E+00
-2.17101E-01	-6.67555E-01	2.62328E+00	-7.66512E+00
-4.98457E-01	-5.71614E-01	2.62318E+00	-7.62741E+00
-7.25259E-01	-3.55673E-01	2.62308E+00	-7.59003E+00
-8.47716E-01	-5.21925E-02	2.62296E+00	-7.55300E+00
-8.34586E-01	2.86795E-01	2.62282E+00	-7.51627E+00
-6.80341E-01	5.99594E-01	2.62270E+00	-7.47982E+00
-4.07208E-01	8.27336E-01	2.62263E+00	-7.44369E+00
-6.13800E-02	9.26116E-01	2.62257E+00	-7.40790E+00
2.96026E-01	8.76281E-01	2.62251E+00	-7.37242E+00
6.01080E-01	6.86706E-01	2.62246E+00	-7.33725E+00
8.00076E-01	3.93192E-01	2.62244E+00	-7.30238E+00
8.60417E-01	5.10620E-02	2.62244E+00	-7.26784E+00
7.76943E-01	-2.76135E-01	2.62243E+00	-7.23364E+00
5.72589E-01	-5.29733E-01	2.62237E+00	-7.19974E+00
2.93078E-01	-6.67777E-01	2.62229E+00	-7.16610E+00
-3.15139E-03	-6.73195E-01	2.62219E+00	-7.13271E+00
-2.57329E-01	-5.56464E-01	2.62211E+00	-7.09957E+00
-4.22673E-01	-3.52502E-01	2.62205E+00	-7.06667E+00
-4.73781E-01	-1.12406E-01	2.62202E+00	-7.03404E+00
-4.11263E-01	1.08102E-01	2.62204E+00	-7.00167E+00
-2.60620E-01	2.60809E-01	2.62210E+00	-6.96959E+00
-6.58524E-02	3.15349E-01	2.62217E+00	-6.93783E+00
1.20898E-01	2.65404E-01	2.62222E+00	-6.90636E+00
2.51215E-01	1.29496E-01	2.62224E+00	-6.87516E+00
2.91354E-01	-5.36545E-02	2.62223E+00	-6.84420E+00
2.29808E-01	-2.34234E-01	2.62220E+00	-6.81347E+00
7.98369E-02	-3.62897E-01	2.62218E+00	-6.78296E+00
-1.23513E-01	-4.02135E-01	2.62216E+00	-6.75267E+00
-3.31336E-01	-3.35098E-01	2.62216E+00	-6.72261E+00
-4.91969E-01	-1.69786E-01	2.62217E+00	-6.69279E+00
-5.62853E-01	6.23954E-02	2.62219E+00	-6.66321E+00
-5.20408E-01	3.13284E-01	2.62220E+00	-6.63384E+00
-3.65821E-01	5.28575E-01	2.62222E+00	-6.60469E+00
-1.25205E-01	6.59967E-01	2.62225E+00	-6.57574E+00
1.55753E-01	6.75964E-01	2.62233E+00	-6.54699E+00
4.21685E-01	5.69109E-01	2.62247E+00	-6.51848E+00
6.19605E-01	3.57796E-01	2.62265E+00	-6.49025E+00
7.10492E-01	8.22246E-02	2.62282E+00	-6.46232E+00
6.77558E-01	-2.04351E-01	2.62295E+00	-6.43465E+00
5.29593E-01	-4.47303E-01	2.62298E+00	-6.40722E+00
2.98495E-01	-6.02320E-01	2.62294E+00	-6.37997E+00
3.16974E-02	-6.44547E-01	2.62282E+00	-6.35287E+00
-2.18447E-01	-5.73000E-01	2.62264E+00	-6.32586E+00
-4.06020E-01	-4.09634E-01	2.62250E+00	-6.29887E+00
-5.00835E-01	-1.93358E-01	2.62256E+00	-6.27196E+00
-4.93717E-01	2.92582E-02	2.62280E+00	-6.24535E+00
-3.96846E-01	2.14427E-01	2.62308E+00	-6.21908E+00
-2.39414E-01	3.29891E-01	2.62334E+00	-6.19304E+00
-6.00549E-02	3.60677E-01	2.62363E+00	-6.16727E+00
1.02018E-01	3.10484E-01	2.62389E+00	-6.14181E+00
2.15048E-01	1.99037E-01	2.62400E+00	-6.11663E+00
2.60307E-01	5.64660E-02	2.62394E+00	-6.09159E+00
2.34372E-01	-8.37056E-02	2.62378E+00	-6.06658E+00
1.48170E-01	-1.91287E-01	2.62365E+00	-6.04158E+00
2.34637E-02	-2.44657E-01	2.62363E+00	-6.01671E+00
-1.11950E-01	-2.33686E-01	2.62366E+00	-5.99200E+00
-2.29407E-01	-1.60529E-01	2.62374E+00	-5.96743E+00
-3.03976E-01	-3.84928E-02	2.62391E+00	-5.94303E+00
-3.18097E-01	1.10403E-01	2.62418E+00	-5.91887E+00
-2.64135E-01	2.58710E-01	2.62447E+00	-5.89500E+00
-1.45840E-01	3.77391E-01	2.62468E+00	-5.87141E+00
2.14679E-02	4.40122E-01	2.62478E+00	-5.84799E+00
2.11969E-01	4.27681E-01	2.62478E+00	-5.82467E+00
3.92322E-01	3.32234E-01	2.62478E+00	-5.80142E+00
5.26464E-01	1.60541E-01	2.62481E+00	-5.77830E+00
5.82041E-01	-6.48446E-02	2.62486E+00	-5.75531E+00
5.37565E-01	-3.07336E-01	2.62493E+00	-5.73244E+00
3.88822E-01	-5.21514E-01	2.62505E+00	-5.70973E+00
1.52582E-01	-6.61538E-01	2.62520E+00	-5.68720E+00
-1.33635E-01	-6.91056E-01	2.62534E+00	-5.66485E+00
-4.17011E-01	-5.92922E-01	2.62546E+00	-5.64266E+00
-6.39388E-01	-3.75710E-01	2.62556E+00	-5.62061E+00
-7.50038E-01	-7.49441E-02	2.62565E+00	-5.59869E+00
-7.18336E-01	2.52133E-01	2.62575E+00	-5.57689E+00
-5.42997E-01	5.37823E-01	2.62586E+00	-5.55522E+00
-2.55057E-01	7.19031E-01	2.62599E+00	-5.53370E+00
8.71057E-02	7.52720E-01	2.62614E+00	-5.51233E+00
4.09648E-01	6.27460E-01	2.62628E+00	-5.49111E+00
6.40235E-01	3.68149E-01	2.62640E+00	-5.47004E+00
7.25560E-01	3.17904E-02	2.62651E+00	-5.44910E+00
6.45070E-01	-3.04996E-01	2.62661E+00	-5.42827E+00
4.17073E-01	-5.63966E-01	2.62671E+00	-5.40757E+00
9.53401E-02	-6.84315E-01	2.62681E+00	-5.38699E+00
-2.43508E-01	-6.37942E-01	2.62693E+00	-5.36652E+00
-5.18288E-01	-4.36698E-01	2.62707E+00	-5.34617E+00
-6.63279E-01	-1.29829E-01	2.62722E+00	-5.32598E+00
-6.44337E-01	2.08089E-01	2.62735E+00	-5.30593E+00
-4.67119E-01	4.95544E-01	2.62747E+00	-5.28599E+00
-1.75281E-01	6.64091E-01	2.62759E+00	-5.26616E+00
1.60747E-01	6.74817E-01	2.62772E+00	-5.24646E+00
4.61579E-01	5.27081E-01	2.62784E+00	-5.22689E+00
6.58036E-01	2.57549E-01	2.62794E+00	-5.20742E+00
7.07449E-01	-6.98986E-02	2.62806E+00	-5.18804E+00
6.02576E-01	-3.80496E-01	2.62820E+00	-5.16879E+00
3.71462E-01	-6.06685E-01	2.62835E+00	-5.14968E+00
6.88101E-02	-7.03335E-01	2.62846E+00	-5.13068E+00
-2.38400E-01	-6.56506E-01	2.62856E+00	-5.11178E+00
-4.86977E-01	-4.84123E-01	2.62866E+00	-5.09297E+00
-6.31305E-01	-2.29009E-01	2.62880E+00	-5.07424E+00
-6.51317E-01	5.28954E-02	2.62896E+00	-5.05565E+00
-5.53949E-01	3.06052E-01	2.62911E+00	-5.03719E+00
-3.68183E-01	4.86841E-01	2.62926E+00	-5.01883E+00
-1.36017E-01	5.70695E-01	2.62941E+00	-5.00058E+00
9.78252E-02	5.53894E-01	2.62957E+00	-4.98245E+00
2.94731E-01	4.50646E-01	2.62969E+00	-4.96444E+00
4.27991E-01	2.87114E-01	2.62980E+00	-4.94652E+00
4.84633E-01	9.47158E-02	2.62990E+00	-4.92866E+00
