jMRUI Data Textfile
 
Filename: NAA.txt
 
PointsInDataset: 2048
DatasetsInFile: 1
SamplingInterval: 5.00000E-01
ZeroOrderPhase: 0E0
BeginTime: 0E0
TransmitterFrequency: 1.27740E+08
MagneticField: 0E0
TypeOfNucleus: 0E0
NameOfPatient: 
DateOfExperiment: 
Spectrometer: Vespa-Simulation
AdditionalInfo: see 'readme' file for Vespa-Simulation output synopsis
 
  
Signal and FFT 
sig(real)	sig(imag)	fft(real)	fft(imag)
Signal 1 out of 1 in file
5.57172E+00	-1.20734E-01	3.54438E+00	-6.74127E+00
2.86477E+00	-2.93490E+00	3.50570E+00	-6.65584E+00
-2.14262E+00	-3.31684E+00	3.46916E+00	-6.57281E+00
-4.27577E+00	-9.45596E-01	3.43481E+00	-6.49209E+00
-1.69443E+00	2.10961E+00	3.40258E+00	-6.41374E+00
2.45192E+00	3.04037E+00	3.37228E+00	-6.33769E+00
3.81644E+00	9.05494E-01	3.34370E+00	-6.26382E+00
1.48719E+00	-2.25392E+00	3.31680E+00	-6.19192E+00
-1.58614E+00	-3.28577E+00	3.29152E+00	-6.12201E+00
-2.25161E+00	-1.20512E+00	3.26768E+00	-6.05403E+00
-4.13279E-01	1.64748E+00	3.24514E+00	-5.98782E+00
1.45990E+00	2.12163E+00	3.22387E+00	-5.92325E+00
1.37318E+00	-1.85258E-01	3.20387E+00	-5.86027E+00
-2.45242E-01	-2.44741E+00	3.18506E+00	-5.79888E+00
-1.44933E+00	-1.92063E+00	3.16732E+00	-5.73906E+00
-1.01466E+00	7.77060E-01	3.15055E+00	-5.68071E+00
4.65682E-01	2.36162E+00	3.13470E+00	-5.62377E+00
1.40280E+00	8.16354E-01	3.11971E+00	-5.56817E+00
8.04074E-01	-2.11993E+00	3.10552E+00	-5.51387E+00
-8.48769E-01	-2.93830E+00	3.09210E+00	-5.46081E+00
-2.02902E+00	-5.02846E-01	3.07941E+00	-5.40897E+00
-1.50126E+00	2.55620E+00	3.06738E+00	-5.35835E+00
4.59212E-01	2.83777E+00	3.05586E+00	-5.30888E+00
2.07995E+00	3.20246E-02	3.04481E+00	-5.26042E+00
1.63761E+00	-2.78648E+00	3.03428E+00	-5.21285E+00
-6.94272E-01	-2.63117E+00	3.02437E+00	-5.16617E+00
-2.68486E+00	2.00797E-01	3.01507E+00	-5.12051E+00
-2.16627E+00	2.66650E+00	3.00617E+00	-5.07589E+00
5.47195E-01	2.35238E+00	2.99761E+00	-5.03215E+00
2.71052E+00	-1.45265E-01	2.98940E+00	-4.98921E+00
1.98019E+00	-2.16130E+00	2.98154E+00	-4.94706E+00
-9.33668E-01	-1.82391E+00	2.97403E+00	-4.90567E+00
-2.89192E+00	2.64414E-01	2.96686E+00	-4.86500E+00
-1.74631E+00	1.94053E+00	2.96001E+00	-4.82506E+00
1.23891E+00	1.68942E+00	2.95343E+00	-4.78581E+00
2.77716E+00	-6.90672E-02	2.94712E+00	-4.74720E+00
1.23853E+00	-1.57867E+00	2.94110E+00	-4.70919E+00
-1.56725E+00	-1.43775E+00	2.93539E+00	-4.67180E+00
-2.50315E+00	1.54242E-01	2.92994E+00	-4.63505E+00
-6.33378E-01	1.61498E+00	2.92472E+00	-4.59893E+00
1.84772E+00	1.46868E+00	2.91967E+00	-4.56338E+00
2.20295E+00	-1.90740E-01	2.91483E+00	-4.52831E+00
1.81880E-01	-1.69189E+00	2.91027E+00	-4.49378E+00
-1.87810E+00	-1.42320E+00	2.90589E+00	-4.45986E+00
-1.76894E+00	4.18371E-01	2.90163E+00	-4.42642E+00
2.35353E-01	1.88572E+00	2.89756E+00	-4.39346E+00
1.87988E+00	1.31149E+00	2.89364E+00	-4.36100E+00
1.46657E+00	-7.83705E-01	2.88983E+00	-4.32901E+00
-4.40557E-01	-2.12141E+00	2.88613E+00	-4.29741E+00
-1.79901E+00	-1.14939E+00	2.88260E+00	-4.26622E+00
-1.27448E+00	1.14279E+00	2.87921E+00	-4.23547E+00
5.01843E-01	2.22745E+00	2.87590E+00	-4.20510E+00
1.70941E+00	8.51388E-01	2.87271E+00	-4.17506E+00
1.17701E+00	-1.50877E+00	2.86973E+00	-4.14539E+00
-5.35935E-01	-2.25452E+00	2.86688E+00	-4.11617E+00
-1.74157E+00	-5.56962E-01	2.86406E+00	-4.08735E+00
-1.25811E+00	1.72954E+00	2.86128E+00	-4.05879E+00
4.52887E-01	2.14049E+00	2.85868E+00	-4.03050E+00
1.70916E+00	2.99207E-01	2.85626E+00	-4.00259E+00
1.23864E+00	-1.75219E+00	2.85391E+00	-3.97507E+00
-5.18140E-01	-1.84897E+00	2.85161E+00	-3.94789E+00
-1.77974E+00	-5.84059E-03	2.84935E+00	-3.92100E+00
-1.21897E+00	1.74000E+00	2.84717E+00	-3.89439E+00
6.09499E-01	1.60009E+00	2.84506E+00	-3.86807E+00
1.78169E+00	-1.33140E-01	2.84300E+00	-3.84201E+00
1.03565E+00	-1.55658E+00	2.84105E+00	-3.81620E+00
-8.28312E-01	-1.23460E+00	2.83918E+00	-3.79068E+00
-1.77069E+00	3.80284E-01	2.83735E+00	-3.76546E+00
-7.39867E-01	1.54994E+00	2.83552E+00	-3.74046E+00
1.14266E+00	1.09096E+00	2.83377E+00	-3.71565E+00
1.79741E+00	-4.69984E-01	2.83213E+00	-3.69108E+00
4.86680E-01	-1.50545E+00	2.83054E+00	-3.66677E+00
-1.35894E+00	-9.55965E-01	2.82899E+00	-3.64265E+00
-1.71444E+00	6.17746E-01	2.82754E+00	-3.61873E+00
-1.81746E-01	1.60884E+00	2.82622E+00	-3.59510E+00
1.59167E+00	9.82122E-01	2.82489E+00	-3.57178E+00
1.71966E+00	-6.65262E-01	2.82347E+00	-3.54864E+00
9.38567E-02	-1.67712E+00	2.82213E+00	-3.52555E+00
-1.55768E+00	-1.01021E+00	2.82097E+00	-3.50268E+00
-1.54649E+00	6.75249E-01	2.81987E+00	-3.48016E+00
3.39150E-02	1.66273E+00	2.81864E+00	-3.45784E+00
1.50314E+00	9.46851E-01	2.81744E+00	-3.43556E+00
1.40027E+00	-7.13009E-01	2.81641E+00	-3.41346E+00
-5.42886E-02	-1.58969E+00	2.81541E+00	-3.39169E+00
-1.30133E+00	-8.14016E-01	2.81424E+00	-3.37008E+00
-1.11153E+00	7.23410E-01	2.81314E+00	-3.34837E+00
1.95380E-01	1.36474E+00	2.81235E+00	-3.32688E+00
1.18115E+00	4.82825E-01	2.81154E+00	-3.30586E+00
8.34130E-01	-8.78804E-01	2.81035E+00	-3.28491E+00
-4.00882E-01	-1.19774E+00	2.80945E+00	-3.26358E+00
-1.14460E+00	-1.54978E-01	2.80910E+00	-3.24289E+00
-5.75510E-01	1.04408E+00	2.80810E+00	-3.22271E+00
6.84479E-01	1.03090E+00	2.80704E+00	-3.20194E+00
1.23023E+00	-2.06847E-01	2.80663E+00	-3.18148E+00
3.95498E-01	-1.30844E+00	2.80598E+00	-3.16158E+00
-9.82805E-01	-1.02461E+00	2.80509E+00	-3.14160E+00
-1.41143E+00	4.15128E-01	2.80438E+00	-3.12153E+00
-3.41800E-01	1.51645E+00	2.80387E+00	-3.10176E+00
1.18307E+00	1.08456E+00	2.80321E+00	-3.08224E+00
1.57389E+00	-5.07496E-01	2.80247E+00	-3.06271E+00
3.65120E-01	-1.66912E+00	2.80186E+00	-3.04319E+00
-1.25897E+00	-1.20522E+00	2.80137E+00	-3.02388E+00
-1.66369E+00	4.56777E-01	2.80080E+00	-3.00478E+00
-4.41678E-01	1.68005E+00	2.80017E+00	-2.98569E+00
1.18099E+00	1.25900E+00	2.79964E+00	-2.96660E+00
1.61107E+00	-3.71486E-01	2.79927E+00	-2.94769E+00
4.87985E-01	-1.58603E+00	2.79888E+00	-2.92902E+00
-1.01672E+00	-1.21616E+00	2.79838E+00	-2.91044E+00
-1.43768E+00	2.90349E-01	2.79790E+00	-2.89184E+00
-4.67441E-01	1.37860E+00	2.79755E+00	-2.87334E+00
8.32039E-01	1.00873E+00	2.79723E+00	-2.85503E+00
1.17722E+00	-3.15573E-01	2.79689E+00	-2.83684E+00
3.37916E-01	-1.16235E+00	2.79655E+00	-2.81874E+00
-7.26996E-01	-7.19680E-01	2.79622E+00	-2.80078E+00
-9.24372E-01	4.02739E-01	2.79581E+00	-2.78295E+00
-1.41377E-01	9.33368E-01	2.79532E+00	-2.76511E+00
7.04677E-01	3.57085E-01	2.79486E+00	-2.74724E+00
6.84085E-01	-5.81617E-01	2.79451E+00	-2.72940E+00
-1.48278E-01	-7.85489E-01	2.79423E+00	-2.71167E+00
-8.27770E-01	-4.68170E-02	2.79398E+00	-2.69401E+00
-5.49998E-01	7.60524E-01	2.79382E+00	-2.67642E+00
4.13027E-01	6.97848E-01	2.79374E+00	-2.65901E+00
9.72173E-01	-1.86981E-01	2.79362E+00	-2.64178E+00
4.23988E-01	-9.23660E-01	2.79342E+00	-2.62462E+00
-7.08288E-01	-6.85822E-01	2.79323E+00	-2.60750E+00
-1.17800E+00	3.17893E-01	2.79304E+00	-2.59047E+00
-3.83073E-01	1.06012E+00	2.79282E+00	-2.57351E+00
9.00038E-01	7.58067E-01	2.79258E+00	-2.55657E+00
1.29315E+00	-3.23249E-01	2.79238E+00	-2.53967E+00
3.14997E-01	-1.12470E+00	2.79220E+00	-2.52283E+00
-1.04605E+00	-8.34777E-01	2.79203E+00	-2.50607E+00
-1.35837E+00	3.03004E-01	2.79184E+00	-2.48935E+00
-2.80842E-01	1.19907E+00	2.79167E+00	-2.47265E+00
1.06971E+00	9.61252E-01	2.79155E+00	-2.45599E+00
1.31196E+00	-2.15501E-01	2.79149E+00	-2.43941E+00
2.45309E-01	-1.19559E+00	2.79144E+00	-2.42291E+00
-9.95809E-01	-9.99611E-01	2.79140E+00	-2.40649E+00
-1.17583E+00	1.97697E-01	2.79134E+00	-2.39018E+00
-2.07846E-01	1.20131E+00	2.79123E+00	-2.37389E+00
8.63373E-01	9.94314E-01	2.79114E+00	-2.35759E+00
1.00418E+00	-2.00192E-01	2.79108E+00	-2.34133E+00
1.94141E-01	-1.13553E+00	2.79105E+00	-2.32511E+00
-6.81396E-01	-8.55519E-01	2.79109E+00	-2.30896E+00
-7.92308E-01	2.88999E-01	2.79111E+00	-2.29294E+00
-1.38223E-01	1.04037E+00	2.79108E+00	-2.27695E+00
5.62153E-01	6.21649E-01	2.79103E+00	-2.26100E+00
6.32834E-01	-4.31376E-01	2.79099E+00	-2.24505E+00
7.01419E-02	-9.15934E-01	2.79095E+00	-2.22916E+00
-5.13453E-01	-3.32059E-01	2.79087E+00	-2.21326E+00
-5.18285E-01	5.89449E-01	2.79084E+00	-2.19732E+00
4.82715E-02	7.72252E-01	2.79090E+00	-2.18143E+00
5.74304E-01	3.46463E-02	2.79097E+00	-2.16563E+00
4.63567E-01	-7.41445E-01	2.79106E+00	-2.14984E+00
-2.14834E-01	-6.56938E-01	2.79119E+00	-2.13417E+00
-7.37777E-01	1.85950E-01	2.79122E+00	-2.11857E+00
-4.74473E-01	8.37724E-01	2.79121E+00	-2.10287E+00
3.75356E-01	5.86557E-01	2.79133E+00	-2.08717E+00
9.05240E-01	-2.81393E-01	2.79150E+00	-2.07156E+00
4.65289E-01	-8.42917E-01	2.79169E+00	-2.05605E+00
-5.53639E-01	-5.37236E-01	2.79182E+00	-2.04064E+00
-1.05962E+00	2.96007E-01	2.79187E+00	-2.02524E+00
-4.46971E-01	8.28166E-01	2.79188E+00	-2.00980E+00
6.76684E-01	5.77707E-01	2.79192E+00	-1.99431E+00
1.10629E+00	-1.76799E-01	2.79203E+00	-1.97885E+00
3.67338E-01	-7.19154E-01	2.79212E+00	-1.96344E+00
-7.39347E-01	-5.66284E-01	2.79219E+00	-1.94801E+00
-1.01888E+00	1.20848E-01	2.79233E+00	-1.93258E+00
-2.02426E-01	6.99730E-01	2.79246E+00	-1.91722E+00
7.86298E-01	6.24371E-01	2.79258E+00	-1.90184E+00
8.91683E-01	-4.31329E-02	2.79271E+00	-1.88647E+00
7.91954E-02	-6.56607E-01	2.79288E+00	-1.87108E+00
-7.02931E-01	-5.90124E-01	2.79311E+00	-1.85573E+00
-6.28760E-01	1.08693E-01	2.79333E+00	-1.84045E+00
1.32662E-01	7.09424E-01	2.79354E+00	-1.82517E+00
7.04061E-01	5.42073E-01	2.79376E+00	-1.80993E+00
5.08945E-01	-2.45951E-01	2.79395E+00	-1.79471E+00
-1.62507E-01	-7.92595E-01	2.79414E+00	-1.77949E+00
-5.66600E-01	-4.62416E-01	2.79430E+00	-1.76428E+00
-3.23114E-01	3.99366E-01	2.79445E+00	-1.74904E+00
2.58307E-01	8.10159E-01	2.79461E+00	-1.73379E+00
5.76383E-01	2.66063E-01	2.79478E+00	-1.71853E+00
3.43515E-01	-6.45667E-01	2.79494E+00	-1.70325E+00
-1.93472E-01	-8.90389E-01	2.79514E+00	-1.68793E+00
-5.28491E-01	-1.75290E-01	2.79537E+00	-1.67261E+00
-3.53122E-01	6.98888E-01	2.79564E+00	-1.65729E+00
1.79600E-01	7.48573E-01	2.79591E+00	-1.64198E+00
5.73708E-01	-7.38728E-02	2.79621E+00	-1.62665E+00
4.20195E-01	-8.44614E-01	2.79659E+00	-1.61131E+00
-1.90018E-01	-7.29659E-01	2.79702E+00	-1.59606E+00
-6.80198E-01	1.01344E-01	2.79740E+00	-1.58086E+00
-5.21932E-01	7.23861E-01	2.79776E+00	-1.56566E+00
