jMRUI Data Textfile
 
Filename: PCr.txt
 
PointsInDataset: 2048
DatasetsInFile: 1
SamplingInterval: 5.00000E-01
ZeroOrderPhase: 0E0
BeginTime: 0E0
TransmitterFrequency: 1.27740E+08
MagneticField: 0E0
TypeOfNucleus: 0E0
NameOfPatient: 
DateOfExperiment: 
Spectrometer: Vespa-Simulation
AdditionalInfo: see 'readme' file for Vespa-Simulation output synopsis
 
  
Signal and FFT 
sig(real)	sig(imag)	fft(real)	fft(imag)
Signal 1 out of 1 in file
7.00000E+00	-2.68001E-17	3.74257E+00	-8.58822E+00
5.44575E+00	-9.16831E-01	3.73902E+00	-8.49427E+00
1.85399E+00	-2.17612E+00	3.73560E+00	-8.40168E+00
-1.67925E+00	-3.44551E+00	3.73228E+00	-8.31041E+00
-3.43361E+00	-3.82975E+00	3.72905E+00	-8.22044E+00
-3.08807E+00	-2.73122E+00	3.72590E+00	-8.13170E+00
-1.57282E+00	-5.91577E-01	3.72286E+00	-8.04416E+00
-9.27199E-02	1.27361E+00	3.71994E+00	-7.95783E+00
7.14655E-01	1.67891E+00	3.71706E+00	-7.87271E+00
8.48376E-01	5.29155E-01	3.71418E+00	-7.78868E+00
4.56024E-01	-1.12562E+00	3.71136E+00	-7.70565E+00
-4.97192E-01	-1.97077E+00	3.70868E+00	-7.62363E+00
-2.00101E+00	-1.43555E+00	3.70612E+00	-7.54267E+00
-3.54654E+00	3.31621E-02	3.70365E+00	-7.46276E+00
-4.12036E+00	1.55363E+00	3.70119E+00	-7.38386E+00
-2.88586E+00	2.58230E+00	3.69875E+00	-7.30590E+00
-1.75789E-02	3.13240E+00	3.69631E+00	-7.22880E+00
3.14392E+00	3.34918E+00	3.69398E+00	-7.15250E+00
4.91260E+00	3.04144E+00	3.69181E+00	-7.07708E+00
4.45274E+00	1.78196E+00	3.68972E+00	-7.00257E+00
2.35626E+00	-4.70349E-01	3.68769E+00	-6.92892E+00
1.17995E-01	-2.91253E+00	3.68570E+00	-6.85611E+00
-1.02099E+00	-4.22121E+00	3.68373E+00	-6.78414E+00
-8.75706E-01	-3.52901E+00	3.68173E+00	-6.71293E+00
-1.62707E-01	-1.22587E+00	3.67973E+00	-6.64238E+00
3.23254E-01	1.18442E+00	3.67784E+00	-6.57247E+00
3.65538E-01	2.13954E+00	3.67609E+00	-6.50329E+00
2.56992E-01	1.14093E+00	3.67440E+00	-6.43487E+00
2.23753E-01	-9.65276E-01	3.67272E+00	-6.36716E+00
4.39989E-02	-2.71951E+00	3.67103E+00	-6.30011E+00
-7.01494E-01	-3.11427E+00	3.66936E+00	-6.23365E+00
-2.02088E+00	-2.12303E+00	3.66774E+00	-6.16780E+00
-3.23393E+00	-4.03448E-01	3.66618E+00	-6.10252E+00
-3.40515E+00	1.36252E+00	3.66467E+00	-6.03783E+00
-2.14353E+00	2.81991E+00	3.66325E+00	-5.97370E+00
-1.89298E-02	3.77587E+00	3.66190E+00	-5.91016E+00
1.82803E+00	3.91327E+00	3.66061E+00	-5.84722E+00
2.55389E+00	2.87584E+00	3.65935E+00	-5.78487E+00
2.18671E+00	7.35798E-01	3.65807E+00	-5.72308E+00
1.42667E+00	-1.67900E+00	3.65675E+00	-5.66180E+00
9.25491E-01	-3.10233E+00	3.65541E+00	-5.60097E+00
7.59457E-01	-2.69641E+00	3.65409E+00	-5.54055E+00
5.63652E-01	-7.69587E-01	3.65286E+00	-5.48054E+00
1.08117E-01	1.33185E+00	3.65173E+00	-5.42101E+00
-3.36990E-01	2.15748E+00	3.65064E+00	-5.36198E+00
-2.57813E-01	1.18458E+00	3.64953E+00	-5.30341E+00
4.80185E-01	-8.77334E-01	3.64843E+00	-5.24526E+00
1.30836E+00	-2.70778E+00	3.64730E+00	-5.18749E+00
1.33039E+00	-3.34722E+00	3.64618E+00	-5.13006E+00
1.10787E-01	-2.71997E+00	3.64511E+00	-5.07290E+00
-1.84636E+00	-1.39571E+00	3.64422E+00	-5.01607E+00
-3.39801E+00	2.73330E-02	3.64352E+00	-4.95967E+00
-3.60884E+00	1.28625E+00	3.64292E+00	-4.90381E+00
-2.41940E+00	2.31242E+00	3.64229E+00	-4.84848E+00
-5.93191E-01	2.90489E+00	3.64152E+00	-4.79362E+00
9.38763E-01	2.70275E+00	3.64054E+00	-4.73911E+00
1.71408E+00	1.56037E+00	3.63936E+00	-4.68476E+00
1.83961E+00	-8.03671E-02	3.63813E+00	-4.63040E+00
1.61012E+00	-1.30584E+00	3.63718E+00	-4.57605E+00
1.14032E+00	-1.36174E+00	3.63666E+00	-4.52209E+00
4.02808E-01	-2.82158E-01	3.63612E+00	-4.46883E+00
-4.42062E-01	1.07349E+00	3.63518E+00	-4.41573E+00
-8.94041E-01	1.66182E+00	3.63449E+00	-4.36246E+00
-4.34261E-01	1.04618E+00	3.63426E+00	-4.30963E+00
9.17094E-01	-3.31341E-01	3.63406E+00	-4.25742E+00
2.37754E+00	-1.59253E+00	3.63370E+00	-4.20563E+00
2.84519E+00	-2.14202E+00	3.63316E+00	-4.15416E+00
1.72571E+00	-2.01905E+00	3.63238E+00	-4.10285E+00
-5.43374E-01	-1.63771E+00	3.63148E+00	-4.05153E+00
-2.74383E+00	-1.26154E+00	3.63065E+00	-4.00018E+00
-3.72172E+00	-7.70302E-01	3.63000E+00	-3.94890E+00
-3.14377E+00	7.16623E-02	3.62954E+00	-3.89781E+00
-1.59040E+00	1.17513E+00	3.62923E+00	-3.84698E+00
-8.72980E-04	2.02298E+00	3.62899E+00	-3.79645E+00
9.89386E-01	2.06301E+00	3.62873E+00	-3.74620E+00
1.28940E+00	1.23595E+00	3.62839E+00	-3.69616E+00
1.11175E+00	1.10692E-01	3.62800E+00	-3.64623E+00
6.34378E-01	-5.39127E-01	3.62764E+00	-3.59637E+00
-5.61518E-02	-3.49456E-01	3.62736E+00	-3.54666E+00
-7.57296E-01	3.79143E-01	3.62712E+00	-3.49714E+00
-1.03432E+00	9.95600E-01	3.62685E+00	-3.44781E+00
-4.62764E-01	1.06171E+00	3.62650E+00	-3.39860E+00
9.24250E-01	6.40458E-01	3.62612E+00	-3.34943E+00
2.44256E+00	8.96666E-02	3.62577E+00	-3.30031E+00
3.11436E+00	-3.65796E-01	3.62542E+00	-3.25126E+00
2.36869E+00	-8.17018E-01	3.62508E+00	-3.20223E+00
5.13291E-01	-1.43380E+00	3.62482E+00	-3.15321E+00
-1.44582E+00	-2.09312E+00	3.62466E+00	-3.10427E+00
-2.51205E+00	-2.31910E+00	3.62456E+00	-3.05542E+00
-2.35779E+00	-1.66789E+00	3.62451E+00	-3.00667E+00
-1.42408E+00	-2.17481E-01	3.62447E+00	-2.95802E+00
-4.50936E-01	1.33298E+00	3.62442E+00	-2.90945E+00
9.74335E-02	2.11504E+00	3.62435E+00	-2.86090E+00
2.30189E-01	1.74024E+00	3.62428E+00	-2.81236E+00
1.81616E-01	5.92965E-01	3.62424E+00	-2.76382E+00
6.67755E-02	-4.81954E-01	3.62425E+00	-2.71530E+00
-1.83031E-01	-8.16559E-01	3.62427E+00	-2.66681E+00
-5.82719E-01	-3.44487E-01	3.62427E+00	-2.61831E+00
-8.80243E-01	4.92052E-01	3.62429E+00	-2.56978E+00
-6.72139E-01	1.17965E+00	3.62435E+00	-2.52122E+00
2.10334E-01	1.47751E+00	3.62443E+00	-2.47264E+00
1.42592E+00	1.40466E+00	3.62450E+00	-2.42404E+00
2.27968E+00	1.00481E+00	3.62460E+00	-2.37535E+00
2.23000E+00	2.29434E-01	3.62476E+00	-2.32663E+00
1.31372E+00	-9.02734E-01	3.62492E+00	-2.27789E+00
1.08934E-01	-2.07097E+00	3.62503E+00	-2.22905E+00
-7.31810E-01	-2.68205E+00	3.62518E+00	-2.18003E+00
-9.59199E-01	-2.25794E+00	3.62551E+00	-2.13091E+00
-8.08939E-01	-8.83293E-01	3.62593E+00	-2.08185E+00
-6.65486E-01	7.21013E-01	3.62627E+00	-2.03282E+00
-6.70088E-01	1.64131E+00	3.62650E+00	-1.98367E+00
-6.51854E-01	1.41237E+00	3.62663E+00	-1.93429E+00
-4.10935E-01	3.38528E-01	3.62685E+00	-1.88462E+00
-2.42895E-02	-7.64116E-01	3.62727E+00	-1.83478E+00
1.67909E-01	-1.17626E+00	3.62779E+00	-1.78493E+00
-9.96750E-02	-7.33665E-01	3.62827E+00	-1.73505E+00
-6.94263E-01	1.90989E-01	3.62866E+00	-1.68500E+00
-1.12018E+00	1.07426E+00	3.62904E+00	-1.63470E+00
-9.14107E-01	1.60432E+00	3.62946E+00	-1.58415E+00
-4.95781E-02	1.73613E+00	3.62994E+00	-1.53339E+00
1.01924E+00	1.50535E+00	3.63049E+00	-1.48241E+00
1.71171E+00	8.91812E-01	3.63112E+00	-1.43123E+00
1.74859E+00	-8.86659E-02	3.63180E+00	-1.37987E+00
1.28537E+00	-1.19095E+00	3.63249E+00	-1.32831E+00
6.79121E-01	-1.93072E+00	3.63320E+00	-1.27654E+00
1.58357E-01	-1.87434E+00	3.63390E+00	-1.22453E+00
-2.80627E-01	-1.01408E+00	3.63457E+00	-1.17224E+00
-6.96232E-01	1.31439E-01	3.63525E+00	-1.11963E+00
-9.88623E-01	8.42769E-01	3.63595E+00	-1.06664E+00
-9.25313E-01	7.17512E-01	3.63676E+00	-1.01330E+00
-4.07632E-01	-4.58608E-02	3.63770E+00	-9.59683E-01
3.04144E-01	-8.33861E-01	3.63869E+00	-9.05852E-01
6.88724E-01	-1.10262E+00	3.63959E+00	-8.51731E-01
3.60803E-01	-7.47187E-01	3.64044E+00	-7.97155E-01
-5.67876E-01	-7.37009E-02	3.64137E+00	-7.42116E-01
-1.50537E+00	5.35275E-01	3.64240E+00	-6.86675E-01
-1.79488E+00	9.18387E-01	3.64349E+00	-6.30840E-01
-1.19473E+00	1.14102E+00	3.64467E+00	-5.74591E-01
-3.15688E-02	1.27288E+00	3.64592E+00	-5.17959E-01
1.07414E+00	1.22137E+00	3.64720E+00	-4.60947E-01
1.65079E+00	8.19697E-01	3.64844E+00	-4.03495E-01
1.61896E+00	7.34193E-02	3.64968E+00	-3.45525E-01
1.19379E+00	-7.16691E-01	3.65093E+00	-2.87022E-01
6.22094E-01	-1.12684E+00	3.65221E+00	-2.27959E-01
3.50364E-02	-9.48712E-01	3.65352E+00	-1.68279E-01
-4.85591E-01	-3.80529E-01	3.65494E+00	-1.07988E-01
-7.83636E-01	1.21658E-01	3.65646E+00	-4.71045E-02
-6.62247E-01	2.09704E-01	3.65806E+00	1.43406E-02
-9.03388E-02	-9.88811E-02	3.65967E+00	7.64204E-02
6.35115E-01	-4.90848E-01	3.66133E+00	1.39201E-01
9.98647E-01	-6.65003E-01	3.66310E+00	2.02710E-01
6.28686E-01	-5.75927E-01	3.66500E+00	2.66920E-01
-3.74730E-01	-3.97123E-01	3.66701E+00	3.31838E-01
-1.44939E+00	-2.75151E-01	3.66913E+00	3.97462E-01
-1.94711E+00	-1.50539E-01	3.67134E+00	4.63786E-01
-1.58564E+00	1.61813E-01	3.67356E+00	5.30831E-01
-6.16792E-01	7.16536E-01	3.67573E+00	5.98699E-01
4.02880E-01	1.28207E+00	3.67785E+00	6.67538E-01
1.01974E+00	1.47274E+00	3.68005E+00	7.37470E-01
1.13027E+00	1.07237E+00	3.68249E+00	8.08450E-01
9.13465E-01	2.52836E-01	3.68517E+00	8.80350E-01
5.86656E-01	-5.24353E-01	3.68798E+00	9.53152E-01
2.47773E-01	-8.49496E-01	3.69084E+00	1.02692E+00
-7.76956E-02	-6.54047E-01	3.69373E+00	1.10176E+00
-3.04324E-01	-2.10026E-01	3.69665E+00	1.17776E+00
-2.72255E-01	1.29439E-01	3.69962E+00	1.25501E+00
9.61929E-02	1.95774E-01	3.70270E+00	1.33361E+00
6.32191E-01	5.35412E-02	3.70598E+00	1.41358E+00
9.57749E-01	-1.58455E-01	3.70950E+00	1.49492E+00
7.50007E-01	-3.88127E-01	3.71328E+00	1.57763E+00
2.03600E-02	-6.59316E-01	3.71730E+00	1.66167E+00
-8.50285E-01	-9.26231E-01	3.72147E+00	1.74705E+00
-1.37533E+00	-9.92558E-01	3.72568E+00	1.83388E+00
-1.31239E+00	-6.34629E-01	3.72987E+00	1.92231E+00
-8.07914E-01	1.57075E-01	3.73405E+00	2.01261E+00
-2.30438E-01	1.05895E+00	3.73844E+00	2.10497E+00
1.37280E-01	1.57863E+00	3.74327E+00	2.19931E+00
2.71666E-01	1.40357E+00	3.74853E+00	2.29546E+00
3.22301E-01	6.48863E-01	3.75395E+00	2.39342E+00
3.94258E-01	-2.13342E-01	3.75944E+00	2.49357E+00
4.34677E-01	-6.91615E-01	3.76530E+00	2.59609E+00
3.28689E-01	-6.04501E-01	3.77159E+00	2.70087E+00
8.26806E-02	-1.47856E-01	3.77825E+00	2.80791E+00
-1.18057E-01	3.15083E-01	3.78516E+00	2.91732E+00
-5.90569E-02	5.28032E-01	3.79221E+00	3.02927E+00
2.85119E-01	4.53678E-01	3.79939E+00	3.14407E+00
6.84861E-01	1.84299E-01	3.80686E+00	3.26200E+00
8.23208E-01	-1.97173E-01	3.81479E+00	3.38314E+00
5.53826E-01	-6.43879E-01	3.82323E+00	3.50755E+00
1.62999E-02	-1.05874E+00	3.83217E+00	3.63538E+00
-4.90136E-01	-1.24134E+00	3.84166E+00	3.76682E+00
-7.49251E-01	-9.88589E-01	3.85178E+00	3.90198E+00
