jMRUI Data Textfile
 
Filename: PE.txt
 
PointsInDataset: 2048
DatasetsInFile: 1
SamplingInterval: 5.00000E-01
ZeroOrderPhase: 0E0
BeginTime: 0E0
TransmitterFrequency: 1.27740E+08
MagneticField: 0E0
TypeOfNucleus: 0E0
NameOfPatient: 
DateOfExperiment: 
Spectrometer: Vespa-Simulation
AdditionalInfo: see 'readme' file for Vespa-Simulation output synopsis
 
  
Signal and FFT 
sig(real)	sig(imag)	fft(real)	fft(imag)
Signal 1 out of 1 in file
2.70247E+00	-2.87113E-05	1.59310E+00	-6.82337E+00
2.38951E+00	-1.13357E+00	1.58807E+00	-6.76234E+00
1.59920E+00	-1.95800E+00	1.58321E+00	-6.70243E+00
5.64620E-01	-2.28895E+00	1.57852E+00	-6.64364E+00
-4.27739E-01	-2.09619E+00	1.57397E+00	-6.58592E+00
-1.13006E+00	-1.50330E+00	1.56954E+00	-6.52924E+00
-1.40776E+00	-7.37561E-01	1.56525E+00	-6.47356E+00
-1.27254E+00	-4.90181E-02	1.56107E+00	-6.41884E+00
-8.65057E-01	3.72526E-01	1.55703E+00	-6.36506E+00
-3.95938E-01	4.54802E-01	1.55312E+00	-6.31220E+00
-6.71360E-02	2.56716E-01	1.54933E+00	-6.26024E+00
-1.59018E-03	-6.38753E-02	1.54565E+00	-6.20916E+00
-2.04678E-01	-3.14719E-01	1.54207E+00	-6.15894E+00
-5.69125E-01	-3.42203E-01	1.53859E+00	-6.10954E+00
-9.19553E-01	-8.72150E-02	1.53521E+00	-6.06094E+00
-1.07944E+00	3.94766E-01	1.53192E+00	-6.01313E+00
-9.36366E-01	9.54859E-01	1.52873E+00	-5.96608E+00
-4.82993E-01	1.40428E+00	1.52563E+00	-5.91978E+00
1.79448E-01	1.58063E+00	1.52261E+00	-5.87420E+00
8.75152E-01	1.40381E+00	1.51968E+00	-5.82933E+00
1.41222E+00	9.02678E-01	1.51683E+00	-5.78517E+00
1.64517E+00	2.04806E-01	1.51404E+00	-5.74168E+00
1.52015E+00	-5.06175E-01	1.51132E+00	-5.69885E+00
1.08868E+00	-1.04988E+00	1.50867E+00	-5.65665E+00
4.86609E-01	-1.30483E+00	1.50610E+00	-5.61508E+00
-1.12986E-01	-1.24213E+00	1.50359E+00	-5.57413E+00
-5.55976E-01	-9.27495E-01	1.50114E+00	-5.53377E+00
-7.53485E-01	-4.92442E-01	1.49877E+00	-5.49400E+00
-7.03591E-01	-8.64471E-02	1.49644E+00	-5.45480E+00
-4.82874E-01	1.73078E-01	1.49416E+00	-5.41615E+00
-2.12674E-01	2.36090E-01	1.49196E+00	-5.37805E+00
-1.31458E-02	1.29672E-01	1.48980E+00	-5.34049E+00
3.85509E-02	-5.91843E-02	1.48769E+00	-5.30346E+00
-6.79974E-02	-2.20117E-01	1.48562E+00	-5.26693E+00
-2.77669E-01	-2.61434E-01	1.48360E+00	-5.23087E+00
-4.93924E-01	-1.42875E-01	1.48165E+00	-5.19531E+00
-6.16148E-01	1.11638E-01	1.47976E+00	-5.16024E+00
-5.76513E-01	4.24468E-01	1.47791E+00	-5.12566E+00
-3.63750E-01	6.93004E-01	1.47608E+00	-5.09155E+00
-2.63168E-02	8.25956E-01	1.47427E+00	-5.05787E+00
3.44928E-01	7.74244E-01	1.47250E+00	-5.02461E+00
6.47768E-01	5.46431E-01	1.47077E+00	-4.99177E+00
8.01939E-01	2.04283E-01	1.46910E+00	-4.95933E+00
7.73703E-01	-1.58994E-01	1.46749E+00	-4.92733E+00
5.83829E-01	-4.49391E-01	1.46592E+00	-4.89576E+00
2.97546E-01	-6.01174E-01	1.46435E+00	-4.86460E+00
9.99068E-04	-5.94671E-01	1.46278E+00	-4.83380E+00
-2.27145E-01	-4.58014E-01	1.46126E+00	-4.80336E+00
-3.39124E-01	-2.53367E-01	1.45979E+00	-4.77329E+00
-3.29353E-01	-5.35948E-02	1.45836E+00	-4.74358E+00
-2.30933E-01	8.21985E-02	1.45697E+00	-4.71424E+00
-9.98602E-02	1.25971E-01	1.45561E+00	-4.68525E+00
6.58812E-03	8.59260E-02	1.45428E+00	-4.65664E+00
4.94839E-02	-1.04871E-03	1.45296E+00	-4.62836E+00
1.95123E-02	-8.58180E-02	1.45165E+00	-4.60041E+00
-6.31455E-02	-1.25867E-01	1.45038E+00	-4.57277E+00
-1.59124E-01	-9.99277E-02	1.44913E+00	-4.54546E+00
-2.25827E-01	-1.37621E-02	1.44790E+00	-4.51846E+00
-2.33031E-01	1.04020E-01	1.44669E+00	-4.49175E+00
-1.72756E-01	2.13703E-01	1.44553E+00	-4.46535E+00
-6.06251E-02	2.79002E-01	1.44439E+00	-4.43926E+00
7.09900E-02	2.79186E-01	1.44326E+00	-4.41346E+00
1.84821E-01	2.14847E-01	1.44215E+00	-4.38795E+00
2.51120E-01	1.06042E-01	1.44106E+00	-4.36272E+00
2.56321E-01	-1.57474E-02	1.43997E+00	-4.33776E+00
2.05543E-01	-1.18492E-01	1.43891E+00	-4.31304E+00
1.18795E-01	-1.79367E-01	1.43789E+00	-4.28858E+00
2.29903E-02	-1.90236E-01	1.43692E+00	-4.26440E+00
-5.70358E-02	-1.57775E-01	1.43597E+00	-4.24051E+00
-1.05390E-01	-9.89085E-02	1.43502E+00	-4.21688E+00
-1.17958E-01	-3.38754E-02	1.43410E+00	-4.19350E+00
-1.00964E-01	2.03290E-02	1.43317E+00	-4.17040E+00
-6.66322E-02	5.40493E-02	1.43222E+00	-4.14752E+00
-2.79904E-02	6.57219E-02	1.43128E+00	-4.12485E+00
5.13735E-03	5.97855E-02	1.43037E+00	-4.10240E+00
2.78390E-02	4.32625E-02	1.42948E+00	-4.08016E+00
3.95127E-02	2.26419E-02	1.42864E+00	-4.05814E+00
4.19080E-02	2.22640E-03	1.42783E+00	-4.03636E+00
3.71101E-02	-1.57988E-02	1.42704E+00	-4.01485E+00
2.65136E-02	-3.02124E-02	1.42619E+00	-3.99357E+00
1.10792E-02	-3.95533E-02	1.42531E+00	-3.97241E+00
-7.60006E-03	-4.17779E-02	1.42453E+00	-3.95140E+00
-2.63424E-02	-3.50660E-02	1.42386E+00	-3.93064E+00
-4.04165E-02	-1.93407E-02	1.42320E+00	-3.91017E+00
-4.48818E-02	2.46216E-03	1.42250E+00	-3.88996E+00
-3.67849E-02	2.43075E-02	1.42173E+00	-3.86994E+00
-1.71982E-02	3.86215E-02	1.42094E+00	-3.85006E+00
8.05920E-03	3.91199E-02	1.42016E+00	-3.83032E+00
2.97170E-02	2.38193E-02	1.41941E+00	-3.81071E+00
3.81952E-02	-3.15997E-03	1.41878E+00	-3.79128E+00
2.75652E-02	-3.20603E-02	1.41817E+00	-3.77213E+00
-1.27819E-03	-5.04476E-02	1.41748E+00	-3.75320E+00
-3.97255E-02	-4.78214E-02	1.41676E+00	-3.73436E+00
-7.35588E-02	-2.02040E-02	1.41609E+00	-3.71565E+00
-8.76587E-02	2.71629E-02	1.41549E+00	-3.69711E+00
-7.17570E-02	8.03814E-02	1.41493E+00	-3.67877E+00
-2.51027E-02	1.20876E-01	1.41438E+00	-3.66064E+00
4.18993E-02	1.31698E-01	1.41381E+00	-3.64272E+00
1.10045E-01	1.03955E-01	1.41321E+00	-3.62496E+00
1.57217E-01	4.09699E-02	1.41258E+00	-3.60733E+00
1.65882E-01	-4.15918E-02	1.41196E+00	-3.58983E+00
1.29660E-01	-1.20040E-01	1.41136E+00	-3.57246E+00
5.64168E-02	-1.70179E-01	1.41078E+00	-3.55523E+00
-3.34648E-02	-1.75543E-01	1.41022E+00	-3.53815E+00
-1.13271E-01	-1.33412E-01	1.40969E+00	-3.52122E+00
-1.58725E-01	-5.63803E-02	1.40918E+00	-3.50445E+00
-1.56292E-01	3.13750E-02	1.40866E+00	-3.48784E+00
-1.08060E-01	1.01948E-01	1.40815E+00	-3.47136E+00
-3.13651E-02	1.33153E-01	1.40765E+00	-3.45503E+00
4.69062E-02	1.16228E-01	1.40714E+00	-3.43884E+00
9.95123E-02	5.90379E-02	1.40664E+00	-3.42278E+00
1.08333E-01	-1.64803E-02	1.40615E+00	-3.40685E+00
7.08631E-02	-8.18659E-02	1.40568E+00	-3.39105E+00
1.30731E-03	-1.12133E-01	1.40522E+00	-3.37539E+00
-7.42296E-02	-9.47249E-02	1.40475E+00	-3.35987E+00
-1.26828E-01	-3.42331E-02	1.40428E+00	-3.34447E+00
-1.35047E-01	4.88619E-02	1.40381E+00	-3.32919E+00
-9.27554E-02	1.25126E-01	1.40336E+00	-3.31402E+00
-1.17173E-02	1.66380E-01	1.40291E+00	-3.29898E+00
8.20812E-02	1.55713E-01	1.40248E+00	-3.28406E+00
1.57180E-01	9.37197E-02	1.40204E+00	-3.26926E+00
1.87485E-01	-1.28541E-03	1.40162E+00	-3.25458E+00
1.61403E-01	-9.91929E-02	1.40120E+00	-3.24001E+00
8.61066E-02	-1.68237E-01	1.40078E+00	-3.22556E+00
-1.46301E-02	-1.85824E-01	1.40037E+00	-3.21120E+00
-1.08366E-01	-1.46318E-01	1.39999E+00	-3.19696E+00
-1.64907E-01	-6.30515E-02	1.39962E+00	-3.18286E+00
-1.66548E-01	3.61357E-02	1.39923E+00	-3.16889E+00
-1.14035E-01	1.18336E-01	1.39882E+00	-3.15501E+00
-2.62325E-02	1.56731E-01	1.39841E+00	-3.14121E+00
6.64384E-02	1.39636E-01	1.39801E+00	-3.12750E+00
1.32391E-01	7.42967E-02	1.39765E+00	-3.11388E+00
1.49661E-01	-1.57776E-02	1.39732E+00	-3.10038E+00
1.13259E-01	-9.90400E-02	1.39699E+00	-3.08703E+00
3.66522E-02	-1.46795E-01	1.39663E+00	-3.07379E+00
-5.31091E-02	-1.42983E-01	1.39624E+00	-3.06063E+00
-1.24862E-01	-8.95083E-02	1.39584E+00	-3.04753E+00
-1.54090E-01	-5.33206E-03	1.39548E+00	-3.03449E+00
-1.31262E-01	8.03226E-02	1.39515E+00	-3.02156E+00
-6.48730E-02	1.38127E-01	1.39485E+00	-3.00874E+00
2.17241E-02	1.48771E-01	1.39456E+00	-2.99605E+00
9.85836E-02	1.09455E-01	1.39423E+00	-2.98347E+00
1.39572E-01	3.46111E-02	1.39388E+00	-2.97097E+00
1.31308E-01	-4.93189E-02	1.39353E+00	-2.95852E+00
7.75907E-02	-1.13153E-01	1.39321E+00	-2.94615E+00
-2.18041E-03	-1.35069E-01	1.39290E+00	-2.93387E+00
-7.98636E-02	-1.07959E-01	1.39259E+00	-2.92168E+00
-1.28369E-01	-4.16908E-02	1.39230E+00	-2.90958E+00
-1.30917E-01	4.05209E-02	1.39203E+00	-2.89758E+00
-8.66129E-02	1.10234E-01	1.39174E+00	-2.88568E+00
-1.05127E-02	1.43531E-01	1.39143E+00	-2.87386E+00
7.17338E-02	1.29058E-01	1.39112E+00	-2.86210E+00
1.32758E-01	7.16094E-02	1.39082E+00	-2.85040E+00
1.52654E-01	-9.79791E-03	1.39054E+00	-2.83879E+00
1.25494E-01	-8.86222E-02	1.39027E+00	-2.82726E+00
6.09179E-02	-1.39842E-01	1.39000E+00	-2.81581E+00
-1.95431E-02	-1.48223E-01	1.38975E+00	-2.80444E+00
-9.00224E-02	-1.13030E-01	1.38950E+00	-2.79318E+00
-1.29060E-01	-4.77124E-02	1.38922E+00	-2.78199E+00
-1.26541E-01	2.51627E-02	1.38894E+00	-2.77086E+00
-8.65340E-02	8.18652E-02	1.38866E+00	-2.75979E+00
-2.52401E-02	1.05452E-01	1.38839E+00	-2.74880E+00
3.50648E-02	9.11421E-02	1.38812E+00	-2.73786E+00
7.38783E-02	4.73045E-02	1.38787E+00	-2.72699E+00
7.93623E-02	-8.06598E-03	1.38765E+00	-2.71619E+00
5.19708E-02	-5.39892E-02	1.38743E+00	-2.70550E+00
3.72250E-03	-7.38661E-02	1.38720E+00	-2.69489E+00
-4.64718E-02	-6.10287E-02	1.38694E+00	-2.68434E+00
-7.96032E-02	-2.06432E-02	1.38668E+00	-2.67385E+00
-8.31469E-02	3.24948E-02	1.38643E+00	-2.66341E+00
-5.51479E-02	7.93707E-02	1.38617E+00	-2.65303E+00
-4.55206E-03	1.03374E-01	1.38594E+00	-2.64269E+00
5.21619E-02	9.58360E-02	1.38574E+00	-2.63243E+00
9.67367E-02	5.86716E-02	1.38555E+00	-2.62226E+00
1.15246E-01	3.34262E-03	1.38535E+00	-2.61219E+00
1.02437E-01	-5.32506E-02	1.38510E+00	-2.60218E+00
6.30330E-02	-9.44929E-02	1.38482E+00	-2.59219E+00
9.67593E-03	-1.09345E-01	1.38459E+00	-2.58222E+00
-4.15783E-02	-9.54930E-02	1.38440E+00	-2.57233E+00
-7.65633E-02	-5.94536E-02	1.38421E+00	-2.56252E+00
-8.73032E-02	-1.38191E-02	1.38403E+00	-2.55279E+00
-7.39691E-02	2.72371E-02	1.38384E+00	-2.54314E+00
-4.40293E-02	5.25962E-02	1.38360E+00	-2.53356E+00
-9.12252E-03	5.73742E-02	1.38332E+00	-2.52399E+00
1.91224E-02	4.38083E-02	1.38309E+00	-2.51440E+00
3.28402E-02	1.97090E-02	1.38295E+00	-2.50488E+00
3.00516E-02	-4.74872E-03	1.38283E+00	-2.49550E+00
1.46176E-02	-2.06667E-02	1.38266E+00	-2.48622E+00
-5.73629E-03	-2.32429E-02	1.38243E+00	-2.47697E+00
-2.24659E-02	-1.29154E-02	1.38220E+00	-2.46775E+00
