jMRUI Data Textfile
 
Filename: Tau.txt
 
PointsInDataset: 2048
DatasetsInFile: 1
SamplingInterval: 5.00000E-01
ZeroOrderPhase: 0E0
BeginTime: 0E0
TransmitterFrequency: 1.27740E+08
MagneticField: 0E0
TypeOfNucleus: 0E0
NameOfPatient: 
DateOfExperiment: 
Spectrometer: Vespa-Simulation
AdditionalInfo: see 'readme' file for Vespa-Simulation output synopsis
 
  
Signal and FFT 
sig(real)	sig(imag)	fft(real)	fft(imag)
Signal 1 out of 1 in file
3.87241E+00	-4.82297E-07	2.01052E+00	-6.91474E+00
3.28386E+00	-2.00652E+00	2.00969E+00	-6.87391E+00
1.74263E+00	-3.39837E+00	2.00888E+00	-6.83352E+00
-2.82325E-01	-3.77428E+00	2.00809E+00	-6.79357E+00
-2.18594E+00	-3.04162E+00	2.00732E+00	-6.75405E+00
-3.41069E+00	-1.43865E+00	2.00658E+00	-6.71496E+00
-3.61253E+00	5.43491E-01	2.00586E+00	-6.67630E+00
-2.75870E+00	2.31333E+00	2.00515E+00	-6.63807E+00
-1.12966E+00	3.35822E+00	2.00443E+00	-6.60027E+00
7.73414E-01	3.39499E+00	2.00369E+00	-6.56285E+00
2.38474E+00	2.44718E+00	2.00295E+00	-6.52579E+00
3.24438E+00	8.27853E-01	2.00223E+00	-6.48910E+00
3.13123E+00	-9.63984E-01	2.00155E+00	-6.45278E+00
2.11946E+00	-2.39877E+00	2.00090E+00	-6.41684E+00
5.44203E-01	-3.07488E+00	2.00025E+00	-6.38130E+00
-1.10927E+00	-2.83208E+00	1.99961E+00	-6.34611E+00
-2.35654E+00	-1.78771E+00	1.99896E+00	-6.31128E+00
-2.85738E+00	-2.88150E-01	1.99831E+00	-6.27680E+00
-2.50902E+00	1.20574E+00	1.99768E+00	-6.24265E+00
-1.46338E+00	2.26144E+00	1.99706E+00	-6.20883E+00
-6.72411E-02	2.60097E+00	1.99645E+00	-6.17534E+00
1.25221E+00	2.17370E+00	1.99586E+00	-6.14218E+00
2.11894E+00	1.15667E+00	1.99528E+00	-6.10934E+00
2.31577E+00	-1.13142E-01	1.99472E+00	-6.07683E+00
1.83740E+00	-1.24978E+00	1.99417E+00	-6.04463E+00
8.76259E-01	-1.93611E+00	1.99363E+00	-6.01276E+00
-2.49761E-01	-2.01233E+00	1.99308E+00	-5.98120E+00
-1.20159E+00	-1.51055E+00	1.99252E+00	-5.94993E+00
-1.72125E+00	-6.28967E-01	1.99197E+00	-5.91893E+00
-1.70120E+00	3.41561E-01	1.99144E+00	-5.88822E+00
-1.20235E+00	1.11256E+00	1.99094E+00	-5.85779E+00
-4.19636E-01	1.48343E+00	1.99047E+00	-5.82766E+00
3.89586E-01	1.39242E+00	1.99000E+00	-5.79783E+00
9.89017E-01	9.20444E-01	1.98952E+00	-5.76829E+00
1.23199E+00	2.51029E-01	1.98902E+00	-5.73902E+00
1.09516E+00	-3.96630E-01	1.98853E+00	-5.71000E+00
6.70765E-01	-8.38281E-01	1.98804E+00	-5.68124E+00
1.23993E-01	-9.76129E-01	1.98755E+00	-5.65273E+00
-3.67093E-01	-8.17337E-01	1.98709E+00	-5.62445E+00
-6.68268E-01	-4.57353E-01	1.98666E+00	-5.59644E+00
-7.24514E-01	-3.74826E-02	1.98624E+00	-5.56869E+00
-5.65434E-01	3.06557E-01	1.98583E+00	-5.54121E+00
-2.82435E-01	4.87041E-01	1.98540E+00	-5.51400E+00
1.11482E-02	4.84908E-01	1.98492E+00	-5.48702E+00
2.21409E-01	3.44315E-01	1.98443E+00	-5.46021E+00
3.02477E-01	1.46424E-01	1.98400E+00	-5.43360E+00
2.63930E-01	-2.58557E-02	1.98361E+00	-5.40723E+00
1.57159E-01	-1.18519E-01	1.98326E+00	-5.38112E+00
4.81388E-02	-1.21884E-01	1.98290E+00	-5.35527E+00
-1.16389E-02	-6.68547E-02	1.98251E+00	-5.32966E+00
-4.83557E-03	-5.49716E-03	1.98209E+00	-5.30426E+00
4.82577E-02	1.50139E-02	1.98166E+00	-5.27903E+00
1.02492E-01	-2.58343E-02	1.98126E+00	-5.25399E+00
1.10695E-01	-1.12935E-01	1.98088E+00	-5.22916E+00
4.67540E-02	-2.02524E-01	1.98053E+00	-5.20454E+00
-8.05493E-02	-2.41767E-01	1.98020E+00	-5.18014E+00
-2.28621E-01	-1.92837E-01	1.97986E+00	-5.15597E+00
-3.36690E-01	-5.16487E-02	1.97951E+00	-5.13200E+00
-3.50066E-01	1.46468E-01	1.97914E+00	-5.10822E+00
-2.43539E-01	3.36818E-01	1.97877E+00	-5.08464E+00
-3.47993E-02	4.47816E-01	1.97838E+00	-5.06123E+00
2.17825E-01	4.27820E-01	1.97800E+00	-5.03796E+00
4.33081E-01	2.66344E-01	1.97766E+00	-5.01485E+00
5.34248E-01	1.53832E-03	1.97737E+00	-4.99195E+00
4.76641E-01	-2.89363E-01	1.97710E+00	-4.96927E+00
2.65467E-01	-5.14030E-01	1.97682E+00	-4.94682E+00
-4.28234E-02	-5.95570E-01	1.97649E+00	-4.92457E+00
-3.56537E-01	-4.99125E-01	1.97611E+00	-4.90245E+00
-5.77415E-01	-2.45509E-01	1.97573E+00	-4.88045E+00
-6.32496E-01	9.32895E-02	1.97539E+00	-4.85858E+00
-4.98613E-01	4.15675E-01	1.97510E+00	-4.83687E+00
-2.11249E-01	6.22073E-01	1.97487E+00	-4.81535E+00
1.45363E-01	6.46712E-01	1.97465E+00	-4.79407E+00
4.64048E-01	4.78955E-01	1.97439E+00	-4.77300E+00
6.47913E-01	1.67312E-01	1.97407E+00	-4.75209E+00
6.40685E-01	-1.95231E-01	1.97370E+00	-4.73130E+00
4.44269E-01	-4.99899E-01	1.97332E+00	-4.71059E+00
1.18010E-01	-6.55766E-01	1.97299E+00	-4.68999E+00
-2.39807E-01	-6.17469E-01	1.97272E+00	-4.66952E+00
-5.22428E-01	-3.98688E-01	1.97253E+00	-4.64924E+00
-6.47244E-01	-6.71605E-02	1.97235E+00	-4.62918E+00
-5.80453E-01	2.76892E-01	1.97215E+00	-4.60932E+00
-3.46207E-01	5.31664E-01	1.97189E+00	-4.58963E+00
-1.79518E-02	6.24557E-01	1.97156E+00	-4.57006E+00
3.05103E-01	5.33171E-01	1.97121E+00	-4.55056E+00
5.28424E-01	2.90427E-01	1.97091E+00	-4.53113E+00
5.90318E-01	-2.71447E-02	1.97068E+00	-4.51183E+00
4.79085E-01	-3.23848E-01	1.97053E+00	-4.49270E+00
2.34466E-01	-5.14109E-01	1.97040E+00	-4.47384E+00
-6.63374E-02	-5.47347E-01	1.97014E+00	-4.45517E+00
-3.33250E-01	-4.21410E-01	1.96980E+00	-4.43654E+00
-4.90549E-01	-1.80860E-01	1.96949E+00	-4.41795E+00
-4.98487E-01	9.85952E-02	1.96925E+00	-4.39946E+00
-3.63010E-01	3.33974E-01	1.96908E+00	-4.38115E+00
-1.31513E-01	4.59833E-01	1.96889E+00	-4.36304E+00
1.23519E-01	4.46432E-01	1.96862E+00	-4.34505E+00
3.27168E-01	3.06242E-01	1.96834E+00	-4.32709E+00
4.24138E-01	8.76915E-02	1.96815E+00	-4.30923E+00
3.93600E-01	-1.41266E-01	1.96802E+00	-4.29154E+00
2.52940E-01	-3.14255E-01	1.96790E+00	-4.27406E+00
5.01031E-02	-3.85575E-01	1.96771E+00	-4.25674E+00
-1.52443E-01	-3.42027E-01	1.96744E+00	-4.23953E+00
-2.96807E-01	-2.04390E-01	1.96712E+00	-4.22237E+00
-3.46075E-01	-1.89005E-02	1.96684E+00	-4.20523E+00
-2.93322E-01	1.57940E-01	1.96665E+00	-4.18819E+00
-1.61353E-01	2.76403E-01	1.96651E+00	-4.17133E+00
6.17761E-03	3.07285E-01	1.96633E+00	-4.15464E+00
1.58868E-01	2.48623E-01	1.96608E+00	-4.13804E+00
2.54520E-01	1.24112E-01	1.96585E+00	-4.12147E+00
2.70508E-01	-2.57110E-02	1.96569E+00	-4.10499E+00
2.08624E-01	-1.56389E-01	1.96559E+00	-4.08868E+00
9.25802E-02	-2.32436E-01	1.96549E+00	-4.07257E+00
-4.04940E-02	-2.36679E-01	1.96526E+00	-4.05660E+00
-1.51632E-01	-1.73612E-01	1.96496E+00	-4.04063E+00
-2.11185E-01	-6.63423E-02	1.96471E+00	-4.02468E+00
-2.06371E-01	5.14031E-02	1.96454E+00	-4.00882E+00
-1.43528E-01	1.45605E-01	1.96442E+00	-3.99309E+00
-4.47853E-02	1.91515E-01	1.96432E+00	-3.97753E+00
5.93451E-02	1.79816E-01	1.96418E+00	-3.96212E+00
1.39143E-01	1.18039E-01	1.96397E+00	-3.94681E+00
1.73889E-01	2.71809E-02	1.96373E+00	-3.93155E+00
1.56961E-01	-6.51515E-02	1.96348E+00	-3.91633E+00
9.66387E-02	-1.32860E-01	1.96328E+00	-3.90115E+00
1.27657E-02	-1.58500E-01	1.96315E+00	-3.88607E+00
-6.95302E-02	-1.37526E-01	1.96305E+00	-3.87114E+00
-1.27159E-01	-7.86984E-02	1.96294E+00	-3.85635E+00
-1.45308E-01	-8.28996E-04	1.96279E+00	-3.84166E+00
-1.21069E-01	7.30324E-02	1.96262E+00	-3.82706E+00
-6.35571E-02	1.22228E-01	1.96243E+00	-3.81252E+00
9.25752E-03	1.34092E-01	1.96225E+00	-3.79806E+00
7.60213E-02	1.07068E-01	1.96207E+00	-3.78368E+00
1.18061E-01	5.05958E-02	1.96190E+00	-3.76937E+00
1.24500E-01	-1.80042E-02	1.96174E+00	-3.75515E+00
9.49574E-02	-7.87095E-02	1.96160E+00	-3.74101E+00
3.92488E-02	-1.14516E-01	1.96145E+00	-3.72696E+00
-2.57568E-02	-1.16105E-01	1.96132E+00	-3.71300E+00
-8.11353E-02	-8.42110E-02	1.96119E+00	-3.69915E+00
-1.11329E-01	-2.90870E-02	1.96104E+00	-3.68540E+00
-1.08468E-01	3.27153E-02	1.96086E+00	-3.67170E+00
-7.43739E-02	8.32129E-02	1.96066E+00	-3.65806E+00
-1.97848E-02	1.08190E-01	1.96049E+00	-3.64444E+00
3.89633E-02	1.01169E-01	1.96039E+00	-3.63091E+00
8.47800E-02	6.50786E-02	1.96032E+00	-3.61751E+00
1.04771E-01	1.11674E-02	1.96021E+00	-3.60424E+00
9.38668E-02	-4.44491E-02	1.96005E+00	-3.59104E+00
5.60947E-02	-8.56091E-02	1.95987E+00	-3.57788E+00
3.18137E-03	-1.00776E-01	1.95970E+00	-3.56476E+00
-4.90642E-02	-8.63048E-02	1.95957E+00	-3.55171E+00
-8.54806E-02	-4.72958E-02	1.95946E+00	-3.53874E+00
-9.59769E-02	4.14162E-03	1.95935E+00	-3.52587E+00
-7.83477E-02	5.26421E-02	1.95922E+00	-3.51307E+00
-3.86893E-02	8.41958E-02	1.95909E+00	-3.50034E+00
1.06755E-02	9.02397E-02	1.95896E+00	-3.48766E+00
5.50149E-02	6.99789E-02	1.95886E+00	-3.47507E+00
8.16330E-02	3.03598E-02	1.95874E+00	-3.46256E+00
8.35387E-02	-1.62774E-02	1.95862E+00	-3.45013E+00
6.12829E-02	-5.60614E-02	1.95846E+00	-3.43776E+00
2.24747E-02	-7.77561E-02	1.95831E+00	-3.42540E+00
-2.07885E-02	-7.59646E-02	1.95822E+00	-3.41309E+00
-5.57124E-02	-5.24492E-02	1.95817E+00	-3.40090E+00
-7.26396E-02	-1.52355E-02	1.95810E+00	-3.38883E+00
-6.77173E-02	2.40874E-02	1.95798E+00	-3.37684E+00
-4.37209E-02	5.40045E-02	1.95782E+00	-3.36488E+00
-8.83005E-03	6.64739E-02	1.95765E+00	-3.35295E+00
2.61323E-02	5.90828E-02	1.95753E+00	-3.34104E+00
5.10725E-02	3.53826E-02	1.95743E+00	-3.32922E+00
5.95519E-02	3.42407E-03	1.95735E+00	-3.31748E+00
5.04152E-02	-2.69595E-02	1.95727E+00	-3.30582E+00
2.77137E-02	-4.71650E-02	1.95717E+00	-3.29423E+00
-9.01400E-04	-5.22554E-02	1.95705E+00	-3.28271E+00
-2.67265E-02	-4.20906E-02	1.95691E+00	-3.27124E+00
-4.26392E-02	-2.09433E-02	1.95677E+00	-3.25980E+00
-4.50231E-02	4.15067E-03	1.95664E+00	-3.24840E+00
-3.44804E-02	2.56919E-02	1.95654E+00	-3.23705E+00
-1.52350E-02	3.79300E-02	1.95646E+00	-3.22578E+00
6.44159E-03	3.83170E-02	1.95638E+00	-3.21458E+00
2.42273E-02	2.79006E-02	1.95629E+00	-3.20347E+00
3.35315E-02	1.06397E-02	1.95617E+00	-3.19241E+00
3.25794E-02	-8.01541E-03	1.95604E+00	-3.18137E+00
2.25859E-02	-2.27823E-02	1.95592E+00	-3.17038E+00
7.09440E-03	-2.99515E-02	1.95583E+00	-3.15942E+00
-9.21428E-03	-2.81954E-02	1.95576E+00	-3.14854E+00
-2.18619E-02	-1.86562E-02	1.95569E+00	-3.13773E+00
-2.76748E-02	-4.40803E-03	1.95561E+00	-3.12699E+00
-2.54516E-02	1.04780E-02	1.95552E+00	-3.11631E+00
-1.60939E-02	2.19915E-02	1.95542E+00	-3.10568E+00
-2.26369E-03	2.71208E-02	1.95530E+00	-3.09508E+00
1.23028E-02	2.45092E-02	1.95521E+00	-3.08452E+00
2.36678E-02	1.47444E-02	1.95514E+00	-3.07403E+00
2.86042E-02	2.47359E-04	1.95506E+00	-3.06360E+00
2.53826E-02	-1.52097E-02	1.95497E+00	-3.05324E+00
