jMRUI Data Textfile
 
Filename: 2HG.txt
 
PointsInDataset: 2048
DatasetsInFile: 1
SamplingInterval: 5.00000E-01
ZeroOrderPhase: 0E0
BeginTime: 0E0
TransmitterFrequency: 1.27740E+08
MagneticField: 0E0
TypeOfNucleus: 0E0
NameOfPatient: 
DateOfExperiment: 
Spectrometer: Vespa-Simulation
AdditionalInfo: see 'readme' file for Vespa-Simulation output synopsis
 
  
Signal and FFT 
sig(real)	sig(imag)	fft(real)	fft(imag)
Signal 1 out of 1 in file
4.58399E+00	-2.72237E-02	2.54298E+00	-6.44251E+00
2.62634E+00	-3.41518E+00	2.53746E+00	-6.39499E+00
-1.10464E+00	-3.51709E+00	2.53213E+00	-6.34831E+00
-2.91705E+00	-5.54444E-01	2.52697E+00	-6.30245E+00
-1.25965E+00	2.22614E+00	2.52198E+00	-6.25737E+00
1.83930E+00	1.99432E+00	2.51715E+00	-6.21308E+00
3.04603E+00	-8.48723E-01	2.51247E+00	-6.16953E+00
1.15366E+00	-3.30903E+00	2.50794E+00	-6.12670E+00
-1.89055E+00	-2.98768E+00	2.50354E+00	-6.08458E+00
-3.19267E+00	-3.89261E-01	2.49928E+00	-6.04314E+00
-1.83217E+00	1.87584E+00	2.49515E+00	-6.00236E+00
4.88676E-01	1.86589E+00	2.49115E+00	-5.96222E+00
1.43557E+00	7.74393E-02	2.48727E+00	-5.92271E+00
3.65654E-01	-1.39711E+00	2.48351E+00	-5.88382E+00
-1.33662E+00	-1.11965E+00	2.47985E+00	-5.84552E+00
-1.92101E+00	4.46959E-01	2.47630E+00	-5.80781E+00
-9.77941E-01	1.72580E+00	2.47285E+00	-5.77066E+00
4.56100E-01	1.70505E+00	2.46950E+00	-5.73405E+00
1.16237E+00	7.24472E-01	2.46624E+00	-5.69798E+00
8.65351E-01	-1.71206E-01	2.46307E+00	-5.66242E+00
1.98211E-01	-3.44044E-01	2.46000E+00	-5.62737E+00
-1.35242E-01	2.64674E-02	2.45701E+00	-5.59282E+00
2.57968E-02	3.95699E-01	2.45410E+00	-5.55876E+00
3.98238E-01	4.46406E-01	2.45126E+00	-5.52517E+00
6.86926E-01	2.14983E-01	2.44851E+00	-5.49203E+00
7.83445E-01	-1.47841E-01	2.44582E+00	-5.45934E+00
6.62444E-01	-5.33969E-01	2.44320E+00	-5.42709E+00
3.05705E-01	-8.11907E-01	2.44066E+00	-5.39526E+00
-1.86313E-01	-7.94829E-01	2.43818E+00	-5.36386E+00
-5.24896E-01	-4.23445E-01	2.43576E+00	-5.33286E+00
-4.42911E-01	5.00989E-02	2.43341E+00	-5.30226E+00
-1.96300E-02	2.05437E-01	2.43111E+00	-5.27205E+00
2.97295E-01	-1.25035E-01	2.42886E+00	-5.24222E+00
1.03325E-01	-6.12304E-01	2.42667E+00	-5.21276E+00
-5.13151E-01	-7.02874E-01	2.42453E+00	-5.18366E+00
-9.96751E-01	-1.82522E-01	2.42245E+00	-5.15492E+00
-8.58914E-01	5.61340E-01	2.42042E+00	-5.12652E+00
-1.84869E-01	8.91655E-01	2.41843E+00	-5.09846E+00
4.26936E-01	5.50921E-01	2.41650E+00	-5.07074E+00
4.49814E-01	-7.91912E-02	2.41460E+00	-5.04334E+00
-5.57864E-02	-3.59139E-01	2.41275E+00	-5.01627E+00
-5.17672E-01	-2.36416E-02	2.41095E+00	-4.98950E+00
-4.29188E-01	5.73325E-01	2.40918E+00	-4.96304E+00
1.61250E-01	8.28585E-01	2.40745E+00	-4.93687E+00
7.23187E-01	4.82001E-01	2.40576E+00	-4.91100E+00
7.74601E-01	-1.56380E-01	2.40411E+00	-4.88541E+00
3.28191E-01	-5.35783E-01	2.40250E+00	-4.86011E+00
-1.62986E-01	-3.92441E-01	2.40092E+00	-4.83508E+00
-2.63417E-01	3.86460E-02	2.39938E+00	-4.81032E+00
5.05190E-02	2.92858E-01	2.39787E+00	-4.78582E+00
4.16546E-01	1.25167E-01	2.39640E+00	-4.76158E+00
4.60000E-01	-2.92552E-01	2.39496E+00	-4.73761E+00
1.33362E-01	-5.74058E-01	2.39355E+00	-4.71388E+00
-2.79027E-01	-4.87576E-01	2.39217E+00	-4.69040E+00
-4.50465E-01	-1.40264E-01	2.39081E+00	-4.66716E+00
-2.99284E-01	1.58791E-01	2.38949E+00	-4.64416E+00
-2.35001E-02	1.91102E-01	2.38818E+00	-4.62138E+00
1.09757E-01	4.81047E-04	2.38691E+00	-4.59883E+00
1.94289E-03	-1.84884E-01	2.38567E+00	-4.57651E+00
-2.18639E-01	-1.74865E-01	2.38445E+00	-4.55440E+00
-3.38895E-01	2.63081E-02	2.38326E+00	-4.53252E+00
-2.52568E-01	2.50386E-01	2.38209E+00	-4.51084E+00
-3.42382E-02	3.27155E-01	2.38094E+00	-4.48938E+00
1.46544E-01	2.23770E-01	2.37981E+00	-4.46812E+00
1.75370E-01	5.11420E-02	2.37871E+00	-4.44705E+00
7.56251E-02	-4.65684E-02	2.37762E+00	-4.42619E+00
-3.20706E-02	-1.20705E-02	2.37656E+00	-4.40551E+00
-4.18595E-02	9.27409E-02	2.37552E+00	-4.38503E+00
5.37798E-02	1.54350E-01	2.37450E+00	-4.36473E+00
1.70721E-01	1.06825E-01	2.37350E+00	-4.34462E+00
2.12027E-01	-2.00431E-02	2.37252E+00	-4.32469E+00
1.47219E-01	-1.34570E-01	2.37155E+00	-4.30494E+00
2.98041E-02	-1.62134E-01	2.37061E+00	-4.28536E+00
-5.35026E-02	-1.01989E-01	2.36968E+00	-4.26596E+00
-5.43905E-02	-1.96751E-02	2.36877E+00	-4.24672E+00
3.19834E-03	1.24060E-02	2.36788E+00	-4.22766E+00
5.04388E-02	-2.58698E-02	2.36701E+00	-4.20875E+00
3.48856E-02	-9.10271E-02	2.36615E+00	-4.19001E+00
-3.68535E-02	-1.17843E-01	2.36530E+00	-4.17143E+00
-1.08703E-01	-7.60922E-02	2.36447E+00	-4.15301E+00
-1.25414E-01	5.92944E-03	2.36366E+00	-4.13474E+00
-7.88102E-02	6.85875E-02	2.36286E+00	-4.11662E+00
-1.13174E-02	7.25726E-02	2.36207E+00	-4.09865E+00
2.33596E-02	2.97665E-02	2.36130E+00	-4.08083E+00
6.07182E-03	-1.15390E-02	2.36055E+00	-4.06315E+00
-3.50535E-02	-1.11597E-02	2.35980E+00	-4.04562E+00
-5.34474E-02	2.91127E-02	2.35907E+00	-4.02823E+00
-2.65021E-02	7.07055E-02	2.35834E+00	-4.01098E+00
2.62689E-02	7.50468E-02	2.35763E+00	-3.99386E+00
6.32462E-02	3.74867E-02	2.35693E+00	-3.97688E+00
5.85133E-02	-1.10301E-02	2.35625E+00	-3.96003E+00
2.29483E-02	-3.35346E-02	2.35557E+00	-3.94331E+00
-8.62592E-03	-1.93961E-02	2.35491E+00	-3.92672E+00
-1.01403E-02	9.31121E-03	2.35425E+00	-3.91025E+00
1.38083E-02	2.09125E-02	2.35361E+00	-3.89391E+00
3.54991E-02	3.58125E-03	2.35298E+00	-3.87770E+00
3.17334E-02	-2.59272E-02	2.35236E+00	-3.86160E+00
4.75369E-03	-4.03600E-02	2.35175E+00	-3.84563E+00
-2.20889E-02	-2.79594E-02	2.35115E+00	-3.82977E+00
-2.76351E-02	-1.73666E-03	2.35055E+00	-3.81403E+00
-1.18464E-02	1.49546E-02	2.34997E+00	-3.79840E+00
6.75581E-03	1.08037E-02	2.34939E+00	-3.78289E+00
1.05037E-02	-4.81916E-03	2.34883E+00	-3.76749E+00
-1.21447E-03	-1.35336E-02	2.34827E+00	-3.75219E+00
-1.38411E-02	-6.56240E-03	2.34773E+00	-3.73701E+00
-1.36434E-02	8.16310E-03	2.34719E+00	-3.72193E+00
-8.56536E-04	1.57310E-02	2.34666E+00	-3.70696E+00
1.21877E-02	9.38986E-03	2.34614E+00	-3.69210E+00
1.42091E-02	-4.02966E-03	2.34563E+00	-3.67734E+00
5.38746E-03	-1.22823E-02	2.34513E+00	-3.66268E+00
-4.47338E-03	-9.85044E-03	2.34463E+00	-3.64812E+00
-6.56365E-03	-2.01518E-03	2.34414E+00	-3.63366E+00
-1.20573E-03	1.82139E-03	2.34366E+00	-3.61930E+00
3.78096E-03	-2.24748E-03	2.34319E+00	-3.60504E+00
1.58154E-03	-9.49464E-03	2.34272E+00	-3.59087E+00
-7.09104E-03	-1.19383E-02	2.34226E+00	-3.57680E+00
-1.52176E-02	-6.17588E-03	2.34180E+00	-3.56282E+00
-1.63858E-02	3.78957E-03	2.34136E+00	-3.54893E+00
-1.04911E-02	1.07171E-02	2.34092E+00	-3.53513E+00
-3.24373E-03	1.08241E-02	2.34048E+00	-3.52142E+00
-5.00577E-04	6.79005E-03	2.34006E+00	-3.50781E+00
-2.91560E-03	4.68473E-03	2.33964E+00	-3.49428E+00
-5.69992E-03	7.99333E-03	2.33922E+00	-3.48083E+00
-3.44774E-03	1.43136E-02	2.33881E+00	-3.46747E+00
4.58177E-03	1.76692E-02	2.33840E+00	-3.45420E+00
1.36516E-02	1.41666E-02	2.33800E+00	-3.44101E+00
1.78994E-02	5.63836E-03	2.33761E+00	-3.42790E+00
1.56821E-02	-2.15288E-03	2.33722E+00	-3.41487E+00
1.07906E-02	-4.95827E-03	2.33684E+00	-3.40192E+00
8.45043E-03	-3.81193E-03	2.33646E+00	-3.38906E+00
1.01457E-02	-3.49917E-03	2.33609E+00	-3.37627E+00
1.24162E-02	-7.40682E-03	2.33572E+00	-3.36356E+00
1.06752E-02	-1.40367E-02	2.33536E+00	-3.35092E+00
3.99527E-03	-1.86234E-02	2.33501E+00	-3.33836E+00
-4.03771E-03	-1.79815E-02	2.33466E+00	-3.32588E+00
-9.06545E-03	-1.34709E-02	2.33431E+00	-3.31347E+00
-1.01798E-02	-9.15817E-03	2.33397E+00	-3.30114E+00
-1.02362E-02	-7.40165E-03	2.33363E+00	-3.28888E+00
-1.22084E-02	-6.65180E-03	2.33329E+00	-3.27669E+00
-1.57104E-02	-3.66190E-03	2.33296E+00	-3.26456E+00
-1.74295E-02	2.50910E-03	2.33263E+00	-3.25251E+00
-1.48726E-02	9.11466E-03	2.33231E+00	-3.24052E+00
-9.30240E-03	1.24513E-02	2.33200E+00	-3.22861E+00
-4.65243E-03	1.17810E-02	2.33169E+00	-3.21676E+00
-3.45602E-03	1.02464E-02	2.33138E+00	-3.20499E+00
-3.98023E-03	1.16246E-02	2.33108E+00	-3.19328E+00
-1.72437E-03	1.60258E-02	2.33077E+00	-3.18164E+00
5.80290E-03	1.89716E-02	2.33047E+00	-3.17005E+00
1.55662E-02	1.53422E-02	2.33018E+00	-3.15853E+00
2.06950E-02	4.94652E-03	2.32989E+00	-3.14708E+00
1.67462E-02	-5.80487E-03	2.32960E+00	-3.13568E+00
7.02018E-03	-8.85914E-03	2.32932E+00	-3.12435E+00
9.92541E-04	-2.56469E-03	2.32905E+00	-3.11309E+00
5.66038E-03	5.05265E-03	2.32877E+00	-3.10188E+00
1.72633E-02	2.70681E-03	2.32850E+00	-3.09074E+00
2.26645E-02	-1.23770E-02	2.32823E+00	-3.07965E+00
1.15707E-02	-2.89905E-02	2.32797E+00	-3.06862E+00
-1.11608E-02	-3.06619E-02	2.32771E+00	-3.05765E+00
-2.69880E-02	-1.25077E-02	2.32745E+00	-3.04674E+00
-2.07555E-02	1.07381E-02	2.32720E+00	-3.03589E+00
2.15195E-03	1.66749E-02	2.32694E+00	-3.02509E+00
1.78391E-02	-1.85432E-03	2.32670E+00	-3.01435E+00
6.79468E-03	-2.62995E-02	2.32645E+00	-3.00366E+00
-2.39725E-02	-2.84907E-02	2.32621E+00	-2.99303E+00
-4.43739E-02	-6.94741E-06	2.32597E+00	-2.98245E+00
-3.05779E-02	3.56398E-02	2.32573E+00	-2.97193E+00
8.35667E-03	4.40172E-02	2.32550E+00	-2.96146E+00
3.62179E-02	1.53151E-02	2.32527E+00	-2.95105E+00
2.53138E-02	-2.27158E-02	2.32504E+00	-2.94068E+00
-1.34978E-02	-3.08780E-02	2.32481E+00	-2.93037E+00
-3.94516E-02	9.31084E-04	2.32459E+00	-2.92011E+00
-2.29396E-02	4.12192E-02	2.32437E+00	-2.90989E+00
2.27663E-02	4.76740E-02	2.32415E+00	-2.89973E+00
5.33737E-02	1.08353E-02	2.32394E+00	-2.88962E+00
3.83178E-02	-3.49679E-02	2.32373E+00	-2.87955E+00
-7.62520E-03	-4.58399E-02	2.32352E+00	-2.86954E+00
-3.90237E-02	-1.28506E-02	2.32332E+00	-2.85958E+00
-2.58361E-02	2.92114E-02	2.32311E+00	-2.84967E+00
1.67670E-02	3.75864E-02	2.32291E+00	-2.83980E+00
4.49051E-02	4.42726E-03	2.32271E+00	-2.82998E+00
3.05963E-02	-3.68314E-02	2.32251E+00	-2.82020E+00
-1.15911E-02	-4.63534E-02	2.32231E+00	-2.81047E+00
-4.13197E-02	-1.69091E-02	2.32212E+00	-2.80079E+00
-3.29856E-02	2.17057E-02	2.32193E+00	-2.79115E+00
1.51833E-03	3.41178E-02	2.32174E+00	-2.78156E+00
2.78777E-02	1.27819E-02	2.32155E+00	-2.77201E+00
2.34462E-02	-1.85713E-02	2.32137E+00	-2.76250E+00
-4.06154E-03	-3.05413E-02	2.32119E+00	-2.75303E+00
-2.79660E-02	-1.47285E-02	2.32102E+00	-2.74361E+00
-2.85641E-02	1.25840E-02	2.32085E+00	-2.73424E+00
-8.12361E-03	2.82873E-02	2.32068E+00	-2.72492E+00
