jMRUI Data Textfile
 
Filename: Glu.txt
 
PointsInDataset: 2048
DatasetsInFile: 1
SamplingInterval: 5.00000E-01
ZeroOrderPhase: 0E0
BeginTime: 0E0
TransmitterFrequency: 1.27740E+08
MagneticField: 0E0
TypeOfNucleus: 0E0
NameOfPatient: 
DateOfExperiment: 
Spectrometer: Vespa-Simulation
AdditionalInfo: see 'readme' file for Vespa-Simulation output synopsis
 
  
Signal and FFT 
sig(real)	sig(imag)	fft(real)	fft(imag)
Signal 1 out of 1 in file
4.71110E+00	-1.48278E-02	2.50780E+00	-5.80367E+00
2.84176E+00	-3.50315E+00	2.50571E+00	-5.77238E+00
-9.21349E-01	-3.97107E+00	2.50367E+00	-5.74146E+00
-3.25547E+00	-1.30495E+00	2.50167E+00	-5.71088E+00
-2.32680E+00	1.83388E+00	2.49972E+00	-5.68065E+00
6.36606E-01	2.56804E+00	2.49781E+00	-5.65074E+00
2.64624E+00	4.27905E-01	2.49594E+00	-5.62117E+00
1.78683E+00	-2.36954E+00	2.49411E+00	-5.59192E+00
-1.09882E+00	-3.10841E+00	2.49233E+00	-5.56299E+00
-3.34137E+00	-1.07748E+00	2.49058E+00	-5.53437E+00
-2.96963E+00	1.91091E+00	2.48887E+00	-5.50605E+00
-4.22810E-01	3.31333E+00	2.48719E+00	-5.47803E+00
2.03132E+00	2.15797E+00	2.48555E+00	-5.45031E+00
2.45150E+00	-2.56012E-01	2.48394E+00	-5.42287E+00
8.74118E-01	-1.73724E+00	2.48235E+00	-5.39572E+00
-9.60491E-01	-1.21602E+00	2.48080E+00	-5.36884E+00
-1.34996E+00	4.68280E-01	2.47929E+00	-5.34222E+00
-1.19698E-01	1.56017E+00	2.47780E+00	-5.31588E+00
1.42800E+00	1.05776E+00	2.47634E+00	-5.28980E+00
1.85630E+00	-5.07406E-01	2.47492E+00	-5.26397E+00
8.62710E-01	-1.74309E+00	2.47352E+00	-5.23840E+00
-6.28447E-01	-1.71478E+00	2.47214E+00	-5.21308E+00
-1.44349E+00	-6.55334E-01	2.47079E+00	-5.18800E+00
-1.17390E+00	4.45998E-01	2.46946E+00	-5.16315E+00
-3.44335E-01	8.11188E-01	2.46816E+00	-5.13854E+00
2.38807E-01	4.51789E-01	2.46689E+00	-5.11416E+00
2.17500E-01	-5.28700E-02	2.46564E+00	-5.09000E+00
-1.55613E-01	-1.94695E-01	2.46442E+00	-5.06608E+00
-4.14202E-01	6.69021E-02	2.46322E+00	-5.04237E+00
-3.31008E-01	4.25633E-01	2.46204E+00	-5.01889E+00
-1.31825E-02	5.98482E-01	2.46088E+00	-4.99561E+00
3.19703E-01	5.29962E-01	2.45974E+00	-4.97254E+00
5.47065E-01	3.09086E-01	2.45863E+00	-4.94967E+00
6.46061E-01	8.88286E-03	2.45754E+00	-4.92701E+00
5.83217E-01	-3.30786E-01	2.45647E+00	-4.90455E+00
3.10323E-01	-6.07903E-01	2.45541E+00	-4.88229E+00
-1.11730E-01	-6.50817E-01	2.45438E+00	-4.86022E+00
-4.52970E-01	-3.77908E-01	2.45336E+00	-4.83834E+00
-4.68299E-01	4.60260E-02	2.45236E+00	-4.81665E+00
-1.52286E-01	2.84681E-01	2.45137E+00	-4.79514E+00
1.89875E-01	1.29248E-01	2.45041E+00	-4.77382E+00
1.90973E-01	-2.62704E-01	2.44946E+00	-4.75267E+00
-2.13268E-01	-4.66494E-01	2.44853E+00	-4.73171E+00
-6.71599E-01	-1.82850E-01	2.44761E+00	-4.71092E+00
-7.11595E-01	4.41003E-01	2.44671E+00	-4.69030E+00
-1.91672E-01	8.97448E-01	2.44581E+00	-4.66985E+00
5.24639E-01	7.67500E-01	2.44493E+00	-4.64956E+00
8.66641E-01	1.22360E-01	2.44407E+00	-4.62944E+00
5.69551E-01	-5.14042E-01	2.44322E+00	-4.60947E+00
-7.60558E-02	-6.27179E-01	2.44238E+00	-4.58966E+00
-4.82871E-01	-1.77085E-01	2.44156E+00	-4.57001E+00
-3.01570E-01	3.68966E-01	2.44075E+00	-4.55052E+00
2.63386E-01	4.70346E-01	2.43995E+00	-4.53117E+00
6.49342E-01	1.13772E-02	2.43916E+00	-4.51198E+00
4.57953E-01	-5.96233E-01	2.43839E+00	-4.49293E+00
-1.80275E-01	-7.95458E-01	2.43762E+00	-4.47403E+00
-7.29823E-01	-3.91528E-01	2.43687E+00	-4.45527E+00
-7.37172E-01	2.80190E-01	2.43613E+00	-4.43665E+00
-2.28881E-01	6.67012E-01	2.43541E+00	-4.41817E+00
3.34053E-01	4.92191E-01	2.43469E+00	-4.39983E+00
4.83850E-01	-2.11385E-02	2.43398E+00	-4.38162E+00
1.54069E-01	-3.80510E-01	2.43329E+00	-4.36354E+00
-2.93509E-01	-2.76761E-01	2.43261E+00	-4.34560E+00
-4.21897E-01	1.57366E-01	2.43194E+00	-4.32779E+00
-1.12331E-01	4.98138E-01	2.43128E+00	-4.31011E+00
3.52773E-01	4.27449E-01	2.43063E+00	-4.29256E+00
5.66641E-01	6.07440E-03	2.42999E+00	-4.27514E+00
3.61845E-01	-4.06708E-01	2.42936E+00	-4.25784E+00
-6.48520E-02	-4.86560E-01	2.42873E+00	-4.24067E+00
-3.53929E-01	-2.16881E-01	2.42810E+00	-4.22361E+00
-3.04366E-01	1.30094E-01	2.42749E+00	-4.20666E+00
-2.44223E-02	2.57412E-01	2.42690E+00	-4.18983E+00
1.99402E-01	9.83224E-02	2.42631E+00	-4.17312E+00
1.70298E-01	-1.56607E-01	2.42574E+00	-4.15653E+00
-6.09235E-02	-2.56312E-01	2.42517E+00	-4.14006E+00
-2.70004E-01	-1.13479E-01	2.42460E+00	-4.12370E+00
-2.72764E-01	1.39620E-01	2.42404E+00	-4.10744E+00
-7.72928E-02	2.89727E-01	2.42349E+00	-4.09130E+00
1.46608E-01	2.31582E-01	2.42294E+00	-4.07526E+00
2.29582E-01	4.03525E-02	2.42241E+00	-4.05932E+00
1.40874E-01	-1.16790E-01	2.42188E+00	-4.04349E+00
-9.68433E-03	-1.31485E-01	2.42137E+00	-4.02776E+00
-8.58990E-02	-3.16182E-02	2.42086E+00	-4.01214E+00
-4.14727E-02	6.67817E-02	2.42035E+00	-3.99663E+00
5.85139E-02	7.18507E-02	2.41986E+00	-3.98121E+00
1.11961E-01	-1.19481E-02	2.41936E+00	-3.96589E+00
7.13177E-02	-1.04120E-01	2.41888E+00	-3.95067E+00
-2.61026E-02	-1.27292E-01	2.41840E+00	-3.93554E+00
-1.02427E-01	-6.95258E-02	2.41793E+00	-3.92051E+00
-1.07925E-01	1.75240E-02	2.41747E+00	-3.90558E+00
-5.42130E-02	7.04819E-02	2.41702E+00	-3.89074E+00
7.22659E-03	6.47874E-02	2.41657E+00	-3.87600E+00
3.27629E-02	2.44222E-02	2.41612E+00	-3.86135E+00
1.76223E-02	-7.83589E-03	2.41568E+00	-3.84679E+00
-1.00456E-02	-7.74043E-03	2.41524E+00	-3.83231E+00
-1.90808E-02	1.59935E-02	2.41481E+00	-3.81793E+00
-7.66026E-04	3.60136E-02	2.41439E+00	-3.80363E+00
2.86266E-02	3.19983E-02	2.41397E+00	-3.78942E+00
4.51446E-02	5.66500E-03	2.41356E+00	-3.77530E+00
3.70686E-02	-2.40100E-02	2.41315E+00	-3.76126E+00
1.19471E-02	-3.78047E-02	2.41274E+00	-3.74731E+00
-1.20524E-02	-3.04917E-02	2.41234E+00	-3.73343E+00
-2.12177E-02	-1.21856E-02	2.41194E+00	-3.71964E+00
-1.54252E-02	2.00794E-03	2.41154E+00	-3.70593E+00
-5.38375E-03	4.31766E-03	2.41116E+00	-3.69229E+00
-1.92423E-03	-1.18330E-03	2.41077E+00	-3.67874E+00
-6.92042E-03	-4.37274E-03	2.41040E+00	-3.66527E+00
-1.30699E-02	8.44914E-04	2.41002E+00	-3.65187E+00
-1.17826E-02	1.11579E-02	2.40965E+00	-3.63855E+00
-1.60975E-03	1.74619E-02	2.40928E+00	-3.62531E+00
1.03692E-02	1.36673E-02	2.40892E+00	-3.61214E+00
1.51431E-02	2.43760E-03	2.40856E+00	-3.59904E+00
1.00211E-02	-7.32690E-03	2.40821E+00	-3.58601E+00
8.34284E-04	-8.72468E-03	2.40787E+00	-3.57306E+00
-3.84155E-03	-2.99191E-03	2.40752E+00	-3.56019E+00
-8.50447E-04	2.19666E-03	2.40718E+00	-3.54738E+00
4.78582E-03	5.32614E-04	2.40685E+00	-3.53465E+00
5.13452E-03	-6.56498E-03	2.40651E+00	-3.52198E+00
-2.44897E-03	-1.12196E-02	2.40618E+00	-3.50938E+00
-1.21622E-02	-6.88253E-03	2.40586E+00	-3.49685E+00
-1.48800E-02	4.80982E-03	2.40554E+00	-3.48438E+00
-6.86918E-03	1.48384E-02	2.40522E+00	-3.47199E+00
6.19304E-03	1.47990E-02	2.40491E+00	-3.45966E+00
1.39372E-02	4.73209E-03	2.40460E+00	-3.44740E+00
1.05990E-02	-6.65049E-03	2.40430E+00	-3.43521E+00
2.85337E-04	-9.78457E-03	2.40400E+00	-3.42307E+00
-6.81451E-03	-2.98720E-03	2.40369E+00	-3.41101E+00
-3.91223E-03	6.02669E-03	2.40340E+00	-3.39900E+00
5.96095E-03	7.39137E-03	2.40311E+00	-3.38706E+00
1.26518E-02	-1.52364E-03	2.40282E+00	-3.37518E+00
8.34514E-03	-1.33256E-02	2.40253E+00	-3.36336E+00
-4.91023E-03	-1.71306E-02	2.40225E+00	-3.35160E+00
-1.66387E-02	-8.53999E-03	2.40197E+00	-3.33991E+00
-1.71784E-02	6.10556E-03	2.40169E+00	-3.32827E+00
-6.34908E-03	1.51845E-02	2.40142E+00	-3.31669E+00
6.37440E-03	1.20743E-02	2.40114E+00	-3.30517E+00
1.03736E-02	9.28444E-04	2.40087E+00	-3.29370E+00
3.36165E-03	-7.27914E-03	2.40061E+00	-3.28230E+00
-6.76296E-03	-4.81914E-03	2.40035E+00	-3.27095E+00
-9.30800E-03	5.77545E-03	2.40009E+00	-3.25966E+00
-6.81942E-04	1.40668E-02	2.39983E+00	-3.24843E+00
1.21801E-02	1.12795E-02	2.39957E+00	-3.23725E+00
1.79436E-02	-1.58275E-03	2.39931E+00	-3.22613E+00
1.10445E-02	-1.43832E-02	2.39906E+00	-3.21505E+00
-3.20433E-03	-1.67029E-02	2.39881E+00	-3.20403E+00
-1.31468E-02	-7.03402E-03	2.39857E+00	-3.19305E+00
-1.09647E-02	5.84261E-03	2.39833E+00	-3.18214E+00
4.48238E-04	1.05541E-02	2.39810E+00	-3.17129E+00
1.00222E-02	3.18935E-03	2.39786E+00	-3.16048E+00
8.32313E-03	-9.13260E-03	2.39762E+00	-3.14973E+00
-3.89745E-03	-1.44363E-02	2.39738E+00	-3.13903E+00
-1.60022E-02	-6.58025E-03	2.39715E+00	-3.12837E+00
-1.66339E-02	8.86922E-03	2.39692E+00	-3.11776E+00
-3.95566E-03	1.89736E-02	2.39669E+00	-3.10720E+00
1.20752E-02	1.46098E-02	2.39647E+00	-3.09669E+00
1.78725E-02	-1.08953E-03	2.39625E+00	-3.08622E+00
8.16531E-03	-1.47448E-02	2.39604E+00	-3.07581E+00
-8.72363E-03	-1.40805E-02	2.39583E+00	-3.06545E+00
-1.74786E-02	9.21966E-04	2.39562E+00	-3.05514E+00
-9.20111E-03	1.71423E-02	2.39541E+00	-3.04488E+00
9.99303E-03	1.93110E-02	2.39520E+00	-3.03467E+00
2.33838E-02	3.81432E-03	2.39499E+00	-3.02450E+00
1.81159E-02	-1.70364E-02	2.39477E+00	-3.01436E+00
-2.69229E-03	-2.49926E-02	2.39457E+00	-3.00427E+00
-2.15182E-02	-1.21244E-02	2.39437E+00	-2.99423E+00
-2.13769E-02	1.10910E-02	2.39418E+00	-2.98423E+00
-1.46386E-03	2.39803E-02	2.39399E+00	-2.97429E+00
2.08897E-02	1.39217E-02	2.39380E+00	-2.96439E+00
2.48131E-02	-1.14352E-02	2.39360E+00	-2.95454E+00
4.85067E-03	-2.97082E-02	2.39340E+00	-2.94473E+00
-2.29140E-02	-2.32809E-02	2.39321E+00	-2.93495E+00
-3.40984E-02	4.24303E-03	2.39302E+00	-2.92522E+00
-1.77174E-02	2.99766E-02	2.39283E+00	-2.91553E+00
1.30771E-02	3.14295E-02	2.39264E+00	-2.90588E+00
3.17001E-02	6.89743E-03	2.39246E+00	-2.89627E+00
2.15876E-02	-2.20680E-02	2.39228E+00	-2.88671E+00
-8.37799E-03	-2.92320E-02	2.39209E+00	-2.87718E+00
-3.09285E-02	-7.29799E-03	2.39191E+00	-2.86770E+00
-2.44401E-02	2.47255E-02	2.39173E+00	-2.85826E+00
7.25129E-03	3.77101E-02	2.39155E+00	-2.84885E+00
3.73333E-02	1.82884E-02	2.39138E+00	-2.83948E+00
3.92264E-02	-1.86240E-02	2.39120E+00	-2.83015E+00
1.01962E-02	-4.22720E-02	2.39103E+00	-2.82086E+00
-2.57447E-02	-3.28294E-02	2.39086E+00	-2.81161E+00
-3.85635E-02	1.08157E-03	2.39069E+00	-2.80240E+00
-1.84439E-02	2.98077E-02	2.39052E+00	-2.79323E+00
1.56422E-02	2.86209E-02	2.39036E+00	-2.78409E+00
3.26422E-02	-6.17534E-04	2.39019E+00	-2.77498E+00
1.67189E-02	-3.11320E-02	2.39003E+00	-2.76592E+00
-1.88299E-02	-3.47228E-02	2.38988E+00	-2.75689E+00
-4.30977E-02	-6.42136E-03	2.38972E+00	-2.74790E+00
