jMRUI Data Textfile
 
Filename: Lac.txt
 
PointsInDataset: 2048
DatasetsInFile: 1
SamplingInterval: 5.00000E-01
ZeroOrderPhase: 0E0
BeginTime: 0E0
TransmitterFrequency: 1.27740E+08
MagneticField: 0E0
TypeOfNucleus: 0E0
NameOfPatient: 
DateOfExperiment: 
Spectrometer: Vespa-Simulation
AdditionalInfo: see 'readme' file for Vespa-Simulation output synopsis
 
  
Signal and FFT 
sig(real)	sig(imag)	fft(real)	fft(imag)
Signal 1 out of 1 in file
3.37046E+00	3.87164E-03	2.04887E+00	-4.49649E+00
1.22480E+00	-2.73425E+00	2.03989E+00	-4.45604E+00
-1.75607E+00	-1.39734E+00	2.03124E+00	-4.41645E+00
-1.05033E+00	1.56842E+00	2.02293E+00	-4.37770E+00
1.93265E+00	1.34317E+00	2.01491E+00	-4.33975E+00
2.29453E+00	-1.70746E+00	2.00719E+00	-4.30257E+00
-6.18368E-01	-2.81477E+00	1.99975E+00	-4.26614E+00
-2.37362E+00	-3.65743E-01	1.99258E+00	-4.23044E+00
-5.09471E-01	1.73789E+00	1.98565E+00	-4.19544E+00
1.75845E+00	3.42577E-01	1.97897E+00	-4.16111E+00
7.62624E-01	-2.12604E+00	1.97252E+00	-4.12744E+00
-1.92509E+00	-1.66552E+00	1.96629E+00	-4.09442E+00
-2.14996E+00	1.04176E+00	1.96028E+00	-4.06201E+00
2.95841E-01	1.88138E+00	1.95446E+00	-4.03019E+00
1.52903E+00	-1.96540E-01	1.94883E+00	-3.99896E+00
-2.48523E-01	-1.70531E+00	1.94339E+00	-3.96830E+00
-2.07594E+00	-2.18093E-01	1.93811E+00	-3.93818E+00
-1.02874E+00	1.93050E+00	1.93301E+00	-3.90858E+00
1.26301E+00	1.46375E+00	1.92806E+00	-3.87950E+00
1.33407E+00	-7.40360E-01	1.92326E+00	-3.85092E+00
-6.93535E-01	-1.19868E+00	1.91861E+00	-3.82281E+00
-1.47665E+00	6.84917E-01	1.91410E+00	-3.79516E+00
2.34343E-01	1.84294E+00	1.90975E+00	-3.76797E+00
1.76565E+00	4.54551E-01	1.90553E+00	-3.74123E+00
8.28177E-01	-1.30314E+00	1.90145E+00	-3.71493E+00
-9.76156E-01	-7.99226E-01	1.89749E+00	-3.68906E+00
-8.14597E-01	9.82185E-01	1.89364E+00	-3.66361E+00
9.53817E-01	1.14383E+00	1.88988E+00	-3.63856E+00
1.49444E+00	-5.62280E-01	1.88623E+00	-3.61389E+00
-9.83843E-03	-1.48344E+00	1.88267E+00	-3.58959E+00
-1.19979E+00	-2.94633E-01	1.87922E+00	-3.56566E+00
-3.29216E-01	1.03269E+00	1.87586E+00	-3.54207E+00
1.08537E+00	4.35386E-01	1.87261E+00	-3.51884E+00
7.73013E-01	-1.06420E+00	1.86944E+00	-3.49595E+00
-7.55737E-01	-1.09563E+00	1.86636E+00	-3.47339E+00
-1.13925E+00	3.40810E-01	1.86337E+00	-3.45116E+00
1.07919E-01	9.99288E-01	1.86045E+00	-3.42924E+00
9.52714E-01	-4.19934E-02	1.85761E+00	-3.40763E+00
1.05419E-01	-1.04108E+00	1.85484E+00	-3.38632E+00
-1.04141E+00	-4.18614E-01	1.85215E+00	-3.36531E+00
-7.02492E-01	8.23571E-01	1.84952E+00	-3.34458E+00
5.35959E-01	7.83852E-01	1.84697E+00	-3.32413E+00
7.49072E-01	-3.71620E-01	1.84448E+00	-3.30396E+00
-2.99121E-01	-7.84295E-01	1.84204E+00	-3.28405E+00
-8.94931E-01	1.47548E-01	1.83967E+00	-3.26441E+00
-1.19504E-01	9.20747E-01	1.83735E+00	-3.24502E+00
7.88304E-01	3.57177E-01	1.83508E+00	-3.22587E+00
4.58235E-01	-6.09700E-01	1.83287E+00	-3.20696E+00
-5.06162E-01	-4.91612E-01	1.83072E+00	-3.18829E+00
-5.73966E-01	4.43590E-01	1.82862E+00	-3.16986E+00
3.12067E-01	6.93130E-01	1.82657E+00	-3.15165E+00
7.41116E-01	-1.02155E-01	1.82456E+00	-3.13366E+00
8.60729E-02	-6.80209E-01	1.82261E+00	-3.11589E+00
-5.87739E-01	-1.90602E-01	1.82069E+00	-3.09833E+00
-2.60162E-01	5.33881E-01	1.81882E+00	-3.08098E+00
4.89884E-01	3.61370E-01	1.81700E+00	-3.06383E+00
4.76896E-01	-3.90877E-01	1.81523E+00	-3.04688E+00
-2.39838E-01	-5.39491E-01	1.81349E+00	-3.03013E+00
-5.31773E-01	9.99336E-02	1.81179E+00	-3.01358E+00
4.35823E-03	5.01247E-01	1.81013E+00	-2.99722E+00
4.84264E-01	7.65712E-02	1.80850E+00	-2.98104E+00
1.75961E-01	-4.60921E-01	1.80690E+00	-2.96503E+00
-3.97341E-01	-2.78558E-01	1.80534E+00	-2.94920E+00
-3.46706E-01	2.99765E-01	1.80381E+00	-2.93355E+00
2.03351E-01	3.72956E-01	1.80232E+00	-2.91807E+00
3.81677E-01	-1.24439E-01	1.80086E+00	-2.90276E+00
-4.90374E-02	-3.88721E-01	1.79942E+00	-2.88760E+00
-3.83379E-01	-3.56222E-02	1.79801E+00	-2.87261E+00
-1.19534E-01	3.51312E-01	1.79663E+00	-2.85777E+00
2.97133E-01	1.84889E-01	1.79528E+00	-2.84307E+00
2.27810E-01	-2.36635E-01	1.79397E+00	-2.82854E+00
-1.77504E-01	-2.56590E-01	1.79268E+00	-2.81415E+00
-2.76172E-01	1.16915E-01	1.79142E+00	-2.79991E+00
5.29247E-02	2.83451E-01	1.79018E+00	-2.78582E+00
2.74959E-01	1.01898E-02	1.78896E+00	-2.77187E+00
6.64903E-02	-2.51972E-01	1.78777E+00	-2.75805E+00
-2.18372E-01	-1.12534E-01	1.78660E+00	-2.74437E+00
-1.46919E-01	1.78192E-01	1.78546E+00	-2.73082E+00
1.35364E-01	1.69893E-01	1.78433E+00	-2.71740E+00
1.83525E-01	-9.23859E-02	1.78323E+00	-2.70412E+00
-4.90014E-02	-1.89247E-01	1.78214E+00	-2.69095E+00
-1.85235E-01	5.16185E-03	1.78106E+00	-2.67791E+00
-3.50206E-02	1.69341E-01	1.78001E+00	-2.66498E+00
1.44531E-01	6.56410E-02	1.77898E+00	-2.65217E+00
8.57573E-02	-1.17723E-01	1.77798E+00	-2.63948E+00
-9.22327E-02	-1.00052E-01	1.77699E+00	-2.62690E+00
-1.11248E-01	6.51535E-02	1.77603E+00	-2.61444E+00
3.43214E-02	1.15664E-01	1.77508E+00	-2.60208E+00
1.09181E-01	-4.37856E-03	1.77416E+00	-2.58984E+00
1.78363E-02	-9.47010E-02	1.77325E+00	-2.57771E+00
-7.94003E-02	-3.17769E-02	1.77236E+00	-2.56568E+00
-4.26166E-02	6.57934E-02	1.77149E+00	-2.55376E+00
5.01832E-02	5.25841E-02	1.77064E+00	-2.54195E+00
5.75803E-02	-3.05078E-02	1.76980E+00	-2.53025E+00
-1.12706E-02	-5.39100E-02	1.76897E+00	-2.51864E+00
-4.44766E-02	-1.79705E-03	1.76816E+00	-2.50714E+00
-8.83969E-03	3.51584E-02	1.76735E+00	-2.49574E+00
2.73700E-02	1.41401E-02	1.76655E+00	-2.48443E+00
1.89219E-02	-1.79986E-02	1.76576E+00	-2.47321E+00
-5.97937E-03	-1.97831E-02	1.76499E+00	-2.46208E+00
-1.44387E-02	-4.91970E-03	1.76422E+00	-2.45104E+00
-1.08097E-02	5.51775E-03	1.76347E+00	-2.44008E+00
-2.90371E-03	1.22100E-02	1.76273E+00	-2.42921E+00
1.19442E-02	1.01376E-02	1.76201E+00	-2.41842E+00
1.80394E-02	-1.04154E-02	1.76129E+00	-2.40771E+00
-5.43155E-03	-2.66445E-02	1.76060E+00	-2.39709E+00
-3.31649E-02	-3.89751E-03	1.75993E+00	-2.38655E+00
-1.54412E-02	3.53022E-02	1.75927E+00	-2.37609E+00
3.35288E-02	2.66101E-02	1.75862E+00	-2.36573E+00
3.69178E-02	-2.93672E-02	1.75797E+00	-2.35547E+00
-2.28350E-02	-4.70322E-02	1.75732E+00	-2.34528E+00
-5.63592E-02	1.27660E-02	1.75665E+00	-2.33517E+00
-9.32496E-04	6.28348E-02	1.75598E+00	-2.32510E+00
6.49348E-02	1.65468E-02	1.75533E+00	-2.31508E+00
3.21517E-02	-6.28942E-02	1.75471E+00	-2.30511E+00
-5.76333E-02	-4.71521E-02	1.75413E+00	-2.29521E+00
-6.17271E-02	4.91023E-02	1.75359E+00	-2.28540E+00
3.63761E-02	7.51222E-02	1.75308E+00	-2.27569E+00
8.52581E-02	-1.93818E-02	1.75256E+00	-2.26608E+00
9.79358E-05	-9.03950E-02	1.75203E+00	-2.25656E+00
-9.07560E-02	-1.98130E-02	1.75148E+00	-2.24710E+00
-3.91666E-02	8.76439E-02	1.75092E+00	-2.23769E+00
8.09455E-02	5.89425E-02	1.75037E+00	-2.22834E+00
7.85188E-02	-6.87694E-02	1.74984E+00	-2.21904E+00
-5.04255E-02	-9.47001E-02	1.74932E+00	-2.20979E+00
-1.04690E-01	2.86233E-02	1.74881E+00	-2.20062E+00
6.84372E-03	1.09387E-01	1.74832E+00	-2.19150E+00
1.11493E-01	1.49337E-02	1.74784E+00	-2.18246E+00
3.93296E-02	-1.10410E-01	1.74737E+00	-2.17348E+00
-1.01923E-01	-6.57926E-02	1.74690E+00	-2.16457E+00
-8.87327E-02	8.44615E-02	1.74644E+00	-2.15572E+00
6.27593E-02	1.03861E-01	1.74597E+00	-2.14693E+00
1.13812E-01	-4.21065E-02	1.74550E+00	-2.13820E+00
-2.08434E-02	-1.23513E-01	1.74504E+00	-2.12952E+00
-1.31061E-01	-6.61377E-03	1.74458E+00	-2.12090E+00
-3.93007E-02	1.28672E-01	1.74412E+00	-2.11232E+00
1.14077E-01	6.80481E-02	1.74367E+00	-2.10380E+00
8.71248E-02	-9.52384E-02	1.74323E+00	-2.09532E+00
-7.93892E-02	-1.02175E-01	1.74279E+00	-2.08690E+00
-1.20825E-01	6.19206E-02	1.74236E+00	-2.07853E+00
3.34921E-02	1.38757E-01	1.74194E+00	-2.07021E+00
1.43676E-01	3.68809E-03	1.74153E+00	-2.06193E+00
3.58841E-02	-1.33304E-01	1.74113E+00	-2.05371E+00
-1.19947E-01	-5.65104E-02	1.74074E+00	-2.04554E+00
-7.55739E-02	1.12388E-01	1.74036E+00	-2.03742E+00
1.01700E-01	1.03377E-01	1.73999E+00	-2.02936E+00
1.31943E-01	-7.44637E-02	1.73961E+00	-2.02134E+00
-3.52340E-02	-1.44013E-01	1.73924E+00	-2.01338E+00
-1.38383E-01	2.88945E-03	1.73887E+00	-2.00547E+00
-1.61893E-02	1.32544E-01	1.73850E+00	-1.99759E+00
1.36024E-01	3.74894E-02	1.73815E+00	-1.98977E+00
7.35644E-02	-1.34290E-01	1.73779E+00	-1.98199E+00
-1.10082E-01	-1.11533E-01	1.73744E+00	-1.97427E+00
-1.29290E-01	7.15220E-02	1.73709E+00	-1.96659E+00
4.27180E-02	1.28047E-01	1.73674E+00	-1.95895E+00
1.30934E-01	-2.84716E-02	1.73638E+00	-1.95135E+00
-7.00442E-03	-1.47041E-01	1.73604E+00	-1.94378E+00
-1.55295E-01	-3.55504E-02	1.73571E+00	-1.93624E+00
-8.04454E-02	1.35338E-01	1.73539E+00	-1.92876E+00
1.00028E-01	1.01389E-01	1.73507E+00	-1.92134E+00
1.03418E-01	-7.82889E-02	1.73475E+00	-1.91395E+00
-7.18214E-02	-1.15296E-01	1.73442E+00	-1.90661E+00
-1.44287E-01	5.22185E-02	1.73410E+00	-1.89929E+00
5.52761E-03	1.62269E-01	1.73378E+00	-1.89200E+00
1.47003E-01	4.29539E-02	1.73348E+00	-1.88475E+00
6.39151E-02	-1.17073E-01	1.73319E+00	-1.87755E+00
-1.05280E-01	-6.75789E-02	1.73290E+00	-1.87040E+00
-8.78073E-02	1.08772E-01	1.73260E+00	-1.86330E+00
9.27014E-02	1.28617E-01	1.73230E+00	-1.85622E+00
1.54852E-01	-4.44608E-02	1.73200E+00	-1.84917E+00
3.87392E-03	-1.43927E-01	1.73170E+00	-1.84215E+00
-1.20800E-01	-2.15217E-02	1.73142E+00	-1.83515E+00
-2.49201E-02	1.20866E-01	1.73116E+00	-1.82821E+00
1.35442E-01	5.21222E-02	1.73090E+00	-1.82131E+00
1.02545E-01	-1.23976E-01	1.73063E+00	-1.81445E+00
-7.66754E-02	-1.34566E-01	1.73036E+00	-1.80762E+00
-1.26952E-01	3.21463E-02	1.73009E+00	-1.80083E+00
2.08835E-02	1.11265E-01	1.72983E+00	-1.79406E+00
1.23927E-01	-1.95630E-02	1.72957E+00	-1.78732E+00
1.27017E-02	-1.49546E-01	1.72933E+00	-1.78061E+00
-1.43044E-01	-6.97072E-02	1.72909E+00	-1.77395E+00
-1.04409E-01	9.87975E-02	1.72885E+00	-1.76733E+00
6.12452E-02	9.85893E-02	1.72861E+00	-1.76075E+00
9.02129E-02	-5.87928E-02	1.72836E+00	-1.75420E+00
-6.10380E-02	-1.15033E-01	1.72811E+00	-1.74766E+00
-1.50508E-01	2.58294E-02	1.72786E+00	-1.74116E+00
-3.42827E-02	1.48597E-01	1.72762E+00	-1.73467E+00
1.08977E-01	6.82842E-02	1.72740E+00	-1.72823E+00
6.25213E-02	-8.07709E-02	1.72718E+00	-1.72182E+00
-8.86417E-02	-6.06702E-02	1.72697E+00	-1.71545E+00
-9.61598E-02	9.54099E-02	1.72674E+00	-1.70912E+00
