jMRUI Data Textfile
 
Filename: NAA.txt
 
PointsInDataset: 2048
DatasetsInFile: 1
SamplingInterval: 5.00000E-01
ZeroOrderPhase: 0E0
BeginTime: 0E0
TransmitterFrequency: 1.27740E+08
MagneticField: 0E0
TypeOfNucleus: 0E0
NameOfPatient: 
DateOfExperiment: 
Spectrometer: Vespa-Simulation
AdditionalInfo: see 'readme' file for Vespa-Simulation output synopsis
 
  
Signal and FFT 
sig(real)	sig(imag)	fft(real)	fft(imag)
Signal 1 out of 1 in file
6.52674E+00	-1.60802E-02	4.66195E+00	-9.85668E+00
3.61493E+00	-3.18363E+00	4.60038E+00	-9.70624E+00
-1.83624E+00	-3.80806E+00	4.54273E+00	-9.56128E+00
-4.31301E+00	-1.45425E+00	4.48874E+00	-9.42147E+00
-1.83285E+00	1.84689E+00	4.43812E+00	-9.28653E+00
2.41439E+00	3.14973E+00	4.39061E+00	-9.15618E+00
4.01321E+00	1.23426E+00	4.34599E+00	-9.03018E+00
1.97418E+00	-2.07269E+00	4.30403E+00	-8.90828E+00
-9.26544E-01	-3.56595E+00	4.26453E+00	-8.79026E+00
-1.74955E+00	-1.94404E+00	4.22732E+00	-8.67594E+00
-4.05552E-01	8.00809E-01	4.19224E+00	-8.56511E+00
9.67308E-01	1.61814E+00	4.15912E+00	-8.45761E+00
8.01533E-01	-1.46076E-01	4.12785E+00	-8.35328E+00
-3.83101E-01	-2.09385E+00	4.09829E+00	-8.25196E+00
-1.03261E+00	-1.74219E+00	4.07032E+00	-8.15352E+00
-4.49208E-01	4.35550E-01	4.04383E+00	-8.05783E+00
6.25202E-01	1.60787E+00	4.01872E+00	-7.96476E+00
9.73421E-01	1.24197E-01	3.99490E+00	-7.87419E+00
1.19846E-01	-2.34103E+00	3.97228E+00	-7.78602E+00
-1.29129E+00	-2.71590E+00	3.95078E+00	-7.70013E+00
-2.04506E+00	-2.42705E-01	3.93033E+00	-7.61643E+00
-1.34012E+00	2.50120E+00	3.91086E+00	-7.53482E+00
4.28054E-01	2.51391E+00	3.89229E+00	-7.45521E+00
1.75850E+00	-2.20052E-01	3.87459E+00	-7.37751E+00
1.26060E+00	-2.75053E+00	3.85770E+00	-7.30164E+00
-8.66155E-01	-2.45816E+00	3.84157E+00	-7.22752E+00
-2.68336E+00	2.04925E-01	3.82618E+00	-7.15510E+00
-2.28115E+00	2.44863E+00	3.81146E+00	-7.08430E+00
1.28710E-01	2.21744E+00	3.79738E+00	-7.01508E+00
2.18377E+00	1.18628E-01	3.78388E+00	-6.94735E+00
1.76981E+00	-1.58258E+00	3.77093E+00	-6.88106E+00
-6.43534E-01	-1.39734E+00	3.75852E+00	-6.81615E+00
-2.43457E+00	1.60475E-01	3.74660E+00	-6.75256E+00
-1.69621E+00	1.45021E+00	3.73516E+00	-6.69024E+00
6.65732E-01	1.38981E+00	3.72418E+00	-6.62914E+00
2.01181E+00	2.72832E-01	3.71363E+00	-6.56923E+00
9.75516E-01	-7.41955E-01	3.70350E+00	-6.51045E+00
-1.07459E+00	-7.41331E-01	3.69377E+00	-6.45278E+00
-1.73037E+00	1.91396E-01	3.68441E+00	-6.39618E+00
-3.22529E-01	1.09823E+00	3.67541E+00	-6.34062E+00
1.43851E+00	1.02787E+00	3.66674E+00	-6.28605E+00
1.55252E+00	-2.14822E-02	3.65840E+00	-6.23245E+00
-4.12714E-03	-9.99777E-01	3.65035E+00	-6.17978E+00
-1.39605E+00	-8.16082E-01	3.64260E+00	-6.12802E+00
-1.09678E+00	4.40348E-01	3.63512E+00	-6.07714E+00
4.75831E-01	1.43941E+00	3.62790E+00	-6.02711E+00
1.58232E+00	9.87035E-01	3.62092E+00	-5.97789E+00
1.11880E+00	-5.70494E-01	3.61417E+00	-5.92947E+00
-3.17575E-01	-1.58477E+00	3.60764E+00	-5.88181E+00
-1.22830E+00	-8.94050E-01	3.60132E+00	-5.83488E+00
-7.94135E-01	8.06077E-01	3.59521E+00	-5.78867E+00
4.33839E-01	1.65539E+00	3.58930E+00	-5.74314E+00
1.23084E+00	6.94975E-01	3.58359E+00	-5.69829E+00
8.97518E-01	-1.03549E+00	3.57806E+00	-5.65409E+00
-1.80421E-01	-1.65319E+00	3.57271E+00	-5.61054E+00
-9.78954E-01	-5.32430E-01	3.56753E+00	-5.56760E+00
-7.82787E-01	1.04028E+00	3.56251E+00	-5.52526E+00
1.87413E-01	1.35589E+00	3.55765E+00	-5.48350E+00
9.82861E-01	1.67292E-01	3.55294E+00	-5.44232E+00
8.12051E-01	-1.14170E+00	3.54838E+00	-5.40169E+00
-1.71616E-01	-1.17401E+00	3.54395E+00	-5.36160E+00
-9.72696E-01	-1.61710E-02	3.53965E+00	-5.32204E+00
-7.46762E-01	9.96808E-01	3.53547E+00	-5.28299E+00
2.81741E-01	8.22050E-01	3.53140E+00	-5.24443E+00
1.00173E+00	-2.28824E-01	3.52745E+00	-5.20635E+00
6.02785E-01	-9.67415E-01	3.52361E+00	-5.16873E+00
-4.98464E-01	-6.55113E-01	3.51988E+00	-5.13157E+00
-1.07627E+00	2.95494E-01	3.51625E+00	-5.09485E+00
-4.60485E-01	8.65976E-01	3.51273E+00	-5.05855E+00
6.80497E-01	5.09453E-01	3.50930E+00	-5.02267E+00
1.06579E+00	-3.60495E-01	3.50596E+00	-4.98720E+00
2.45114E-01	-8.54144E-01	3.50273E+00	-4.95213E+00
-8.81360E-01	-4.91445E-01	3.49958E+00	-4.91745E+00
-1.06693E+00	3.63261E-01	3.49653E+00	-4.88315E+00
-1.06253E-01	8.73615E-01	3.49356E+00	-4.84923E+00
9.53897E-01	5.33771E-01	3.49067E+00	-4.81568E+00
9.85773E-01	-3.40232E-01	3.48785E+00	-4.78248E+00
-4.59192E-03	-8.96839E-01	3.48510E+00	-4.74963E+00
-9.41023E-01	-5.72913E-01	3.48243E+00	-4.71711E+00
-8.72044E-01	3.26972E-01	3.47982E+00	-4.68493E+00
5.42425E-02	9.04469E-01	3.47728E+00	-4.65308E+00
8.38188E-01	5.72219E-01	3.47479E+00	-4.62153E+00
7.23249E-01	-3.25495E-01	3.47237E+00	-4.59030E+00
-7.31971E-02	-8.57629E-01	3.47000E+00	-4.55935E+00
-6.89338E-01	-4.88026E-01	3.46768E+00	-4.52870E+00
-5.47557E-01	3.55479E-01	3.46543E+00	-4.49832E+00
1.12957E-01	7.56213E-01	3.46323E+00	-4.46822E+00
5.70757E-01	3.12998E-01	3.46110E+00	-4.43840E+00
3.88516E-01	-4.38999E-01	3.45901E+00	-4.40884E+00
-1.82966E-01	-6.50880E-01	3.45698E+00	-4.37954E+00
-5.15622E-01	-1.13074E-01	3.45500E+00	-4.35050E+00
-2.65402E-01	5.33307E-01	3.45307E+00	-4.32172E+00
2.86173E-01	5.42598E-01	3.45118E+00	-4.29318E+00
5.35133E-01	-9.41579E-02	3.44934E+00	-4.26488E+00
1.89281E-01	-6.53441E-01	3.44754E+00	-4.23682E+00
-4.10516E-01	-4.97816E-01	3.44578E+00	-4.20899E+00
-6.24757E-01	2.19930E-01	3.44405E+00	-4.18138E+00
-1.85455E-01	7.31491E-01	3.44237E+00	-4.15398E+00
4.90574E-01	4.86408E-01	3.44072E+00	-4.12680E+00
7.03224E-01	-2.69178E-01	3.43910E+00	-4.09983E+00
1.98806E-01	-7.64323E-01	3.43752E+00	-4.07305E+00
-5.37142E-01	-5.04517E-01	3.43599E+00	-4.04648E+00
-7.60359E-01	2.40387E-01	3.43448E+00	-4.02010E+00
-2.37724E-01	7.33799E-01	3.43302E+00	-3.99391E+00
5.05351E-01	5.14488E-01	3.43159E+00	-3.96790E+00
7.28063E-01	-1.70509E-01	3.43020E+00	-3.94208E+00
2.34581E-01	-6.44314E-01	3.42884E+00	-3.91645E+00
-4.47453E-01	-4.76487E-01	3.42752E+00	-3.89099E+00
-6.37417E-01	1.19900E-01	3.42622E+00	-3.86571E+00
-1.97001E-01	5.38664E-01	3.42496E+00	-3.84060E+00
3.73849E-01	3.97556E-01	3.42373E+00	-3.81567E+00
4.97555E-01	-1.04407E-01	3.42253E+00	-3.79091E+00
1.09801E-01	-4.30030E-01	3.42134E+00	-3.76631E+00
-3.28309E-01	-2.72020E-01	3.42017E+00	-3.74187E+00
-3.57879E-01	1.49958E-01	3.41901E+00	-3.71758E+00
2.77105E-03	3.57754E-01	3.41786E+00	-3.69342E+00
3.22230E-01	1.41258E-01	3.41675E+00	-3.66939E+00
2.48223E-01	-2.28901E-01	3.41566E+00	-3.64549E+00
-1.18568E-01	-3.20625E-01	3.41462E+00	-3.62173E+00
-3.54702E-01	-2.72071E-02	3.41362E+00	-3.59811E+00
-1.86051E-01	3.17476E-01	3.41265E+00	-3.57462E+00
2.11705E-01	3.15689E-01	3.41172E+00	-3.55129E+00
4.01404E-01	-4.85981E-02	3.41080E+00	-3.52810E+00
1.57694E-01	-3.86666E-01	3.40990E+00	-3.50505E+00
-2.80039E-01	-3.26151E-01	3.40901E+00	-3.48213E+00
-4.50094E-01	8.49302E-02	3.40814E+00	-3.45933E+00
-1.57411E-01	4.24949E-01	3.40727E+00	-3.43665E+00
3.08267E-01	3.40485E-01	3.40642E+00	-3.41409E+00
4.65874E-01	-8.66740E-02	3.40559E+00	-3.39163E+00
1.46989E-01	-4.25781E-01	3.40477E+00	-3.36928E+00
-3.22846E-01	-3.37778E-01	3.40396E+00	-3.34704E+00
-4.62077E-01	8.51910E-02	3.40318E+00	-3.32489E+00
-1.35040E-01	4.19162E-01	3.40241E+00	-3.30285E+00
3.13205E-01	3.36523E-01	3.40168E+00	-3.28090E+00
4.25663E-01	-7.04364E-02	3.40096E+00	-3.25906E+00
1.06820E-01	-3.89529E-01	3.40027E+00	-3.23732E+00
-2.96973E-01	-3.05708E-01	3.39959E+00	-3.21567E+00
-3.75424E-01	8.51826E-02	3.39893E+00	-3.19413E+00
-7.42275E-02	3.80482E-01	3.39829E+00	-3.17268E+00
2.76930E-01	2.84588E-01	3.39765E+00	-3.15132E+00
3.26674E-01	-9.09737E-02	3.39704E+00	-3.13004E+00
5.43649E-02	-3.50884E-01	3.39644E+00	-3.10885E+00
-2.40715E-01	-2.32728E-01	3.39587E+00	-3.08776E+00
-2.66225E-01	1.22441E-01	3.39530E+00	-3.06675E+00
-2.32956E-02	3.31075E-01	3.39474E+00	-3.04582E+00
2.24046E-01	1.82026E-01	3.39418E+00	-3.02497E+00
2.32381E-01	-1.45515E-01	3.39364E+00	-3.00419E+00
1.49732E-02	-2.91924E-01	3.39310E+00	-2.98348E+00
-1.92657E-01	-1.14064E-01	3.39259E+00	-2.96283E+00
-1.81327E-01	1.71259E-01	3.39209E+00	-2.94224E+00
2.44965E-02	2.44357E-01	3.39161E+00	-2.92172E+00
2.01015E-01	3.90084E-02	3.39116E+00	-2.90127E+00
1.60102E-01	-2.00009E-01	3.39072E+00	-2.88090E+00
-5.35705E-02	-2.05278E-01	3.39030E+00	-2.86059E+00
-2.06870E-01	1.70603E-02	3.38989E+00	-2.84034E+00
-1.25816E-01	2.09715E-01	3.38949E+00	-2.82016E+00
1.09644E-01	1.59878E-01	3.38911E+00	-2.80004E+00
2.40305E-01	-7.21511E-02	3.38875E+00	-2.77998E+00
1.07880E-01	-2.32463E-01	3.38840E+00	-2.75999E+00
-1.58804E-01	-1.52597E-01	3.38805E+00	-2.74007E+00
-2.69516E-01	8.02511E-02	3.38770E+00	-2.72019E+00
-8.97669E-02	2.26736E-01	3.38735E+00	-2.70037E+00
1.98412E-01	1.43039E-01	3.38701E+00	-2.68058E+00
2.84012E-01	-8.40926E-02	3.38668E+00	-2.66083E+00
6.72117E-02	-2.33091E-01	3.38636E+00	-2.64113E+00
-2.25469E-01	-1.63125E-01	3.38605E+00	-2.62146E+00
-2.84966E-01	5.75337E-02	3.38576E+00	-2.60183E+00
-5.41781E-02	2.20263E-01	3.38549E+00	-2.58224E+00
2.16635E-01	1.71859E-01	3.38523E+00	-2.56269E+00
2.47669E-01	-4.09305E-02	3.38498E+00	-2.54318E+00
2.57256E-02	-2.12613E-01	3.38476E+00	-2.52370E+00
-2.01587E-01	-1.74940E-01	3.38455E+00	-2.50427E+00
-2.05729E-01	3.45502E-02	3.38436E+00	-2.48488E+00
-1.02324E-02	2.03847E-01	3.38417E+00	-2.46552E+00
1.63508E-01	1.60525E-01	3.38399E+00	-2.44621E+00
1.46932E-01	-4.57153E-02	3.38381E+00	-2.42693E+00
-1.35354E-02	-1.91976E-01	3.38364E+00	-2.40767E+00
-1.35773E-01	-1.22196E-01	3.38347E+00	-2.38844E+00
-1.04129E-01	8.04872E-02	3.38331E+00	-2.36923E+00
2.76201E-02	1.86072E-01	3.38315E+00	-2.35003E+00
1.15387E-01	7.73787E-02	3.38300E+00	-2.33084E+00
7.67866E-02	-1.17025E-01	3.38287E+00	-2.31167E+00
-3.89445E-02	-1.71573E-01	3.38276E+00	-2.29251E+00
-1.11724E-01	-2.39783E-02	3.38267E+00	-2.27336E+00
-6.84378E-02	1.54149E-01	3.38260E+00	-2.25423E+00
4.99741E-02	1.57103E-01	3.38256E+00	-2.23512E+00
1.26354E-01	-1.88069E-02	3.38253E+00	-2.21603E+00
7.76904E-02	-1.74842E-01	3.38253E+00	-2.19696E+00
-5.80565E-02	-1.38761E-01	3.38254E+00	-2.17792E+00
-1.46903E-01	4.48603E-02	3.38256E+00	-2.15890E+00
-8.84556E-02	1.73942E-01	3.38258E+00	-2.13991E+00
