jMRUI Data Textfile
 
Filename: PE.txt
 
PointsInDataset: 2048
DatasetsInFile: 1
SamplingInterval: 5.00000E-01
ZeroOrderPhase: 0E0
BeginTime: 0E0
TransmitterFrequency: 1.27740E+08
MagneticField: 0E0
TypeOfNucleus: 0E0
NameOfPatient: 
DateOfExperiment: 
Spectrometer: Vespa-Simulation
AdditionalInfo: see 'readme' file for Vespa-Simulation output synopsis
 
  
Signal and FFT 
sig(real)	sig(imag)	fft(real)	fft(imag)
Signal 1 out of 1 in file
3.62768E+00	1.36023E-03	2.27157E+00	-9.18190E+00
3.19239E+00	-1.50689E+00	2.26267E+00	-9.09980E+00
2.13115E+00	-2.59048E+00	2.25405E+00	-9.01922E+00
7.60355E-01	-3.01353E+00	2.24569E+00	-8.94011E+00
-5.39552E-01	-2.74702E+00	2.23757E+00	-8.86242E+00
-1.44628E+00	-1.96393E+00	2.22970E+00	-8.78612E+00
-1.79198E+00	-9.69094E-01	2.22205E+00	-8.71116E+00
-1.60295E+00	-9.05802E-02	2.21462E+00	-8.63751E+00
-1.07268E+00	4.29234E-01	2.20741E+00	-8.56513E+00
-4.80960E-01	5.06370E-01	2.20040E+00	-8.49399E+00
-8.93351E-02	2.29249E-01	2.19359E+00	-8.42406E+00
-4.98812E-02	-1.87495E-01	2.18697E+00	-8.35529E+00
-3.57633E-01	-4.90305E-01	2.18053E+00	-8.28767E+00
-8.60895E-01	-4.82998E-01	2.17427E+00	-8.22117E+00
-1.32310E+00	-9.83345E-02	2.16817E+00	-8.15574E+00
-1.51251E+00	5.78839E-01	2.16224E+00	-8.09137E+00
-1.28768E+00	1.34303E+00	2.15646E+00	-8.02803E+00
-6.49114E-01	1.94113E+00	2.15083E+00	-7.96569E+00
2.59318E-01	2.16075E+00	2.14535E+00	-7.90433E+00
1.19827E+00	1.90280E+00	2.14001E+00	-7.84392E+00
1.91200E+00	1.21441E+00	2.13481E+00	-7.78445E+00
2.21113E+00	2.72394E-01	2.12974E+00	-7.72588E+00
2.03113E+00	-6.75620E-01	2.12479E+00	-7.66820E+00
1.44797E+00	-1.39087E+00	2.11997E+00	-7.61138E+00
6.47677E-01	-1.71688E+00	2.11526E+00	-7.55540E+00
-1.38024E-01	-1.62249E+00	2.11067E+00	-7.50025E+00
-7.07018E-01	-1.20204E+00	2.10619E+00	-7.44591E+00
-9.47575E-01	-6.34864E-01	2.10182E+00	-7.39235E+00
-8.65349E-01	-1.19988E-01	2.09755E+00	-7.33956E+00
-5.69694E-01	1.90813E-01	2.09338E+00	-7.28752E+00
-2.26427E-01	2.39070E-01	2.08930E+00	-7.23621E+00
4.92713E-03	7.06036E-02	2.08532E+00	-7.18563E+00
2.71831E-02	-1.90011E-01	2.08143E+00	-7.13574E+00
-1.63868E-01	-3.90646E-01	2.07763E+00	-7.08654E+00
-4.83291E-01	-4.09401E-01	2.07391E+00	-7.03802E+00
-7.92054E-01	-1.98716E-01	2.07028E+00	-6.99014E+00
-9.49682E-01	1.98738E-01	2.06672E+00	-6.94292E+00
-8.65422E-01	6.66496E-01	2.06325E+00	-6.89632E+00
-5.30474E-01	1.05594E+00	2.05985E+00	-6.85034E+00
-2.09293E-02	1.23797E+00	2.05652E+00	-6.80496E+00
5.28205E-01	1.14643E+00	2.05326E+00	-6.76017E+00
9.68176E-01	7.99155E-01	2.05007E+00	-6.71595E+00
1.18450E+00	2.90426E-01	2.04695E+00	-6.67231E+00
1.13200E+00	-2.41428E-01	2.04390E+00	-6.62922E+00
8.45625E-01	-6.59111E-01	2.04091E+00	-6.58667E+00
4.24809E-01	-8.68892E-01	2.03798E+00	-6.54466E+00
-1.92443E-03	-8.46344E-01	2.03511E+00	-6.50317E+00
-3.19440E-01	-6.38153E-01	2.03229E+00	-6.46219E+00
-4.60911E-01	-3.40691E-01	2.02954E+00	-6.42171E+00
-4.24272E-01	-6.41547E-02	2.02684E+00	-6.38172E+00
-2.66048E-01	1.04965E-01	2.02420E+00	-6.34222E+00
-7.61335E-02	1.30309E-01	2.02160E+00	-6.30319E+00
5.65613E-02	3.30397E-02	2.01906E+00	-6.26463E+00
7.53725E-02	-1.21055E-01	2.01657E+00	-6.22652E+00
-2.63436E-02	-2.48881E-01	2.01412E+00	-6.18886E+00
-2.06095E-01	-2.81488E-01	2.01172E+00	-6.15163E+00
-3.90306E-01	-1.88621E-01	2.00937E+00	-6.11484E+00
-5.02225E-01	1.16453E-02	2.00706E+00	-6.07847E+00
-4.89610E-01	2.60649E-01	2.00480E+00	-6.04252E+00
-3.42628E-01	4.80591E-01	2.00258E+00	-6.00697E+00
-9.64782E-02	6.01630E-01	2.00040E+00	-5.97183E+00
1.81436E-01	5.85185E-01	1.99825E+00	-5.93708E+00
4.14491E-01	4.35681E-01	1.99615E+00	-5.90271E+00
5.41877E-01	1.97496E-01	1.99409E+00	-5.86872E+00
5.37030E-01	-6.10113E-02	1.99206E+00	-5.83510E+00
4.13915E-01	-2.70356E-01	1.99007E+00	-5.80185E+00
2.19714E-01	-3.81687E-01	1.98811E+00	-5.76896E+00
1.73776E-02	-3.80199E-01	1.98620E+00	-5.73642E+00
-1.35579E-01	-2.86605E-01	1.98431E+00	-5.70423E+00
-2.04706E-01	-1.46925E-01	1.98247E+00	-5.67238E+00
-1.87176E-01	-1.48982E-02	1.98065E+00	-5.64087E+00
-1.09093E-01	6.64492E-02	1.97886E+00	-5.60969E+00
-1.34924E-02	7.79973E-02	1.97711E+00	-5.57884E+00
5.62614E-02	2.84237E-02	1.97538E+00	-5.54831E+00
7.16315E-02	-5.17133E-02	1.97368E+00	-5.51809E+00
2.76550E-02	-1.22857E-01	1.97201E+00	-5.48818E+00
-5.71953E-02	-1.51375E-01	1.97037E+00	-5.45857E+00
-1.49290E-01	-1.21243E-01	1.96875E+00	-5.42926E+00
-2.12740E-01	-3.87626E-02	1.96717E+00	-5.40024E+00
-2.22220E-01	7.07794E-02	1.96560E+00	-5.37151E+00
-1.71311E-01	1.72765E-01	1.96407E+00	-5.34307E+00
-7.38236E-02	2.35492E-01	1.96256E+00	-5.31490E+00
4.17558E-02	2.40594E-01	1.96109E+00	-5.28701E+00
1.42393E-01	1.88375E-01	1.95964E+00	-5.25941E+00
2.01440E-01	9.65294E-02	1.95821E+00	-5.23208E+00
2.06609E-01	-6.70092E-03	1.95679E+00	-5.20501E+00
1.62673E-01	-9.22837E-02	1.95538E+00	-5.17820E+00
8.83838E-02	-1.39544E-01	1.95400E+00	-5.15164E+00
9.14539E-03	-1.41763E-01	1.95264E+00	-5.12532E+00
-5.16893E-02	-1.06679E-01	1.95130E+00	-5.09924E+00
-7.99566E-02	-5.22774E-02	1.94999E+00	-5.07342E+00
-7.40123E-02	2.91195E-04	1.94870E+00	-5.04783E+00
-4.35718E-02	3.40121E-02	1.94743E+00	-5.02248E+00
-4.93250E-03	4.10361E-02	1.94618E+00	-4.99736E+00
2.54069E-02	2.40576E-02	1.94496E+00	-4.97247E+00
3.64150E-02	-6.04195E-03	1.94375E+00	-4.94781E+00
2.56299E-02	-3.50348E-02	1.94256E+00	-4.92338E+00
-1.03823E-03	-5.07465E-02	1.94138E+00	-4.89918E+00
-3.23669E-02	-4.71024E-02	1.94022E+00	-4.87518E+00
-5.63578E-02	-2.55897E-02	1.93907E+00	-4.85140E+00
-6.45020E-02	6.05438E-03	1.93793E+00	-4.82783E+00
-5.43645E-02	3.71562E-02	1.93682E+00	-4.80445E+00
-2.97848E-02	5.80378E-02	1.93572E+00	-4.78129E+00
1.08568E-03	6.31489E-02	1.93464E+00	-4.75832E+00
2.89470E-02	5.24110E-02	1.93358E+00	-4.73555E+00
4.65013E-02	3.05687E-02	1.93254E+00	-4.71299E+00
5.05055E-02	5.01399E-03	1.93151E+00	-4.69061E+00
4.21725E-02	-1.69336E-02	1.93049E+00	-4.66843E+00
2.60514E-02	-3.03016E-02	1.92949E+00	-4.64644E+00
7.99487E-03	-3.35726E-02	1.92850E+00	-4.62463E+00
-6.92960E-03	-2.84454E-02	1.92752E+00	-4.60300E+00
-1.58374E-02	-1.85701E-02	1.92656E+00	-4.58156E+00
-1.83877E-02	-7.90487E-03	1.92561E+00	-4.56029E+00
-1.61769E-02	6.42618E-04	1.92467E+00	-4.53920E+00
-1.16016E-02	5.84856E-03	1.92375E+00	-4.51828E+00
-6.74513E-03	7.99798E-03	1.92284E+00	-4.49754E+00
-2.72949E-03	8.17012E-03	1.92194E+00	-4.47696E+00
3.07033E-04	7.41344E-03	1.92105E+00	-4.45655E+00
2.74240E-03	6.21499E-03	1.92018E+00	-4.43630E+00
4.85848E-03	4.46416E-03	1.91932E+00	-4.41621E+00
6.44120E-03	1.83981E-03	1.91847E+00	-4.39629E+00
6.80641E-03	-1.65624E-03	1.91763E+00	-4.37652E+00
5.22302E-03	-5.35250E-03	1.91680E+00	-4.35692E+00
1.49408E-03	-7.97821E-03	1.91598E+00	-4.33746E+00
-3.63692E-03	-8.15799E-03	1.91518E+00	-4.31816E+00
-8.51580E-03	-5.11605E-03	1.91438E+00	-4.29901E+00
-1.10990E-02	7.51892E-04	1.91360E+00	-4.28001E+00
-9.79190E-03	7.75102E-03	1.91282E+00	-4.26115E+00
-4.24904E-03	1.33378E-02	1.91205E+00	-4.24245E+00
4.23246E-03	1.50293E-02	1.91129E+00	-4.22388E+00
1.29635E-02	1.14333E-02	1.91054E+00	-4.20545E+00
1.87193E-02	2.97506E-03	1.90979E+00	-4.18716E+00
1.89323E-02	-8.01683E-03	1.90906E+00	-4.16901E+00
1.27602E-02	-1.79693E-02	1.90834E+00	-4.15099E+00
1.59525E-03	-2.32778E-02	1.90763E+00	-4.13312E+00
-1.12334E-02	-2.16458E-02	1.90692E+00	-4.11537E+00
-2.15160E-02	-1.30437E-02	1.90622E+00	-4.09775E+00
-2.56270E-02	1.04944E-04	1.90553E+00	-4.08026E+00
-2.18739E-02	1.36393E-02	1.90485E+00	-4.06290E+00
-1.12153E-02	2.30443E-02	1.90418E+00	-4.04566E+00
2.94416E-03	2.50501E-02	1.90352E+00	-4.02855E+00
1.58585E-02	1.88505E-02	1.90286E+00	-4.01157E+00
2.30752E-02	6.48507E-03	1.90221E+00	-3.99470E+00
2.20269E-02	-7.78721E-03	1.90157E+00	-3.97796E+00
1.30020E-02	-1.89300E-02	1.90094E+00	-3.96133E+00
-8.79454E-04	-2.28985E-02	1.90031E+00	-3.94482E+00
-1.46915E-02	-1.80936E-02	1.89970E+00	-3.92842E+00
-2.34032E-02	-5.99561E-03	1.89909E+00	-3.91215E+00
-2.36520E-02	9.28516E-03	1.89849E+00	-3.89598E+00
-1.49654E-02	2.23940E-02	1.89789E+00	-3.87993E+00
1.06504E-05	2.85801E-02	1.89731E+00	-3.86399E+00
1.63720E-02	2.53638E-02	1.89673E+00	-3.84816E+00
2.86211E-02	1.34295E-02	1.89615E+00	-3.83244E+00
3.25407E-02	-3.56527E-03	1.89559E+00	-3.81683E+00
2.66521E-02	-2.02145E-02	1.89503E+00	-3.80132E+00
1.27267E-02	-3.11931E-02	1.89448E+00	-3.78593E+00
-4.81673E-03	-3.30580E-02	1.89393E+00	-3.77063E+00
-2.04207E-02	-2.53966E-02	1.89339E+00	-3.75544E+00
-2.92741E-02	-1.09288E-02	1.89286E+00	-3.74035E+00
-2.89217E-02	5.46157E-03	1.89233E+00	-3.72537E+00
-2.00428E-02	1.84312E-02	1.89180E+00	-3.71048E+00
-6.14128E-03	2.39932E-02	1.89128E+00	-3.69569E+00
7.72703E-03	2.08489E-02	1.89077E+00	-3.68100E+00
1.67384E-02	1.07575E-02	1.89026E+00	-3.66640E+00
1.79675E-02	-2.15770E-03	1.88975E+00	-3.65190E+00
1.13605E-02	-1.29093E-02	1.88925E+00	-3.63749E+00
-3.08402E-04	-1.74160E-02	1.88876E+00	-3.62317E+00
-1.24688E-02	-1.39259E-02	1.88827E+00	-3.60895E+00
-2.03858E-02	-3.60072E-03	1.88778E+00	-3.59482E+00
-2.08313E-02	9.91828E-03	1.88730E+00	-3.58077E+00
-1.32038E-02	2.18016E-02	1.88682E+00	-3.56682E+00
2.73636E-04	2.77141E-02	1.88635E+00	-3.55295E+00
1.53309E-02	2.53036E-02	1.88589E+00	-3.53917E+00
2.71136E-02	1.49901E-02	1.88543E+00	-3.52547E+00
3.18241E-02	-2.07029E-04	1.88498E+00	-3.51186E+00
2.79613E-02	-1.57037E-02	1.88453E+00	-3.49834E+00
1.67716E-02	-2.68957E-02	1.88409E+00	-3.48489E+00
1.76381E-03	-3.06617E-02	1.88365E+00	-3.47153E+00
-1.25111E-02	-2.63247E-02	1.88322E+00	-3.45825E+00
-2.19805E-02	-1.57654E-02	1.88279E+00	-3.44506E+00
-2.43475E-02	-2.68264E-03	1.88238E+00	-3.43195E+00
-1.97389E-02	8.71549E-03	1.88196E+00	-3.41892E+00
-1.05111E-02	1.51298E-02	1.88154E+00	-3.40597E+00
-3.22454E-04	1.51986E-02	1.88112E+00	-3.39309E+00
7.18387E-03	9.83029E-03	1.88072E+00	-3.38029E+00
9.62008E-03	1.74209E-03	1.88032E+00	-3.36756E+00
6.59917E-03	-5.59087E-03	1.87993E+00	-3.35491E+00
-2.44001E-04	-9.19191E-03	1.87954E+00	-3.34235E+00
-7.92787E-03	-7.60592E-03	1.87914E+00	-3.32986E+00
-1.32349E-02	-1.34891E-03	1.87875E+00	-3.31744E+00
