jMRUI Data Textfile
 
Filename: Pyr.txt
 
PointsInDataset: 2048
DatasetsInFile: 1
SamplingInterval: 5.00000E-01
ZeroOrderPhase: 0E0
BeginTime: 0E0
TransmitterFrequency: 1.27740E+08
MagneticField: 0E0
TypeOfNucleus: 0E0
NameOfPatient: 
DateOfExperiment: 
Spectrometer: Vespa-Simulation
AdditionalInfo: see 'readme' file for Vespa-Simulation output synopsis
 
  
Signal and FFT 
sig(real)	sig(imag)	fft(real)	fft(imag)
Signal 1 out of 1 in file
3.00000E+00	5.20417E-18	1.55742E+00	-2.95408E+00
1.74308E+00	-2.38398E+00	1.55707E+00	-2.94286E+00
-8.81675E-01	-2.77030E+00	1.55674E+00	-2.93173E+00
-2.71372E+00	-9.08985E-01	1.55641E+00	-2.92066E+00
-2.29907E+00	1.62834E+00	1.55609E+00	-2.90966E+00
-4.18503E-02	2.77308E+00	1.55577E+00	-2.89874E+00
2.17934E+00	1.64449E+00	1.55545E+00	-2.88788E+00
2.57305E+00	-7.76342E-01	1.55514E+00	-2.87709E+00
8.78081E-01	-2.49577E+00	1.55483E+00	-2.86637E+00
-1.47309E+00	-2.14789E+00	1.55451E+00	-2.85571E+00
-2.56274E+00	-7.73694E-02	1.55419E+00	-2.84511E+00
-1.55050E+00	1.99155E+00	1.55387E+00	-2.83458E+00
6.81725E-01	2.38926E+00	1.55356E+00	-2.82410E+00
2.29474E+00	8.46479E-01	1.55324E+00	-2.81368E+00
2.00597E+00	-1.33171E+00	1.55293E+00	-2.80332E+00
1.07268E-01	-2.36782E+00	1.55261E+00	-2.79302E+00
-1.81929E+00	-1.46099E+00	1.55230E+00	-2.78276E+00
-2.21804E+00	5.96837E-01	1.55200E+00	-2.77257E+00
-8.14471E-01	2.10936E+00	1.55170E+00	-2.76242E+00
1.20299E+00	1.87282E+00	1.55142E+00	-2.75233E+00
2.18722E+00	1.32185E-01	1.55115E+00	-2.74231E+00
1.37587E+00	-1.66129E+00	1.55088E+00	-2.73236E+00
-5.20743E-01	-2.05860E+00	1.55059E+00	-2.72247E+00
-1.93845E+00	-7.82283E-01	1.55030E+00	-2.71262E+00
-1.74793E+00	1.08588E+00	1.55001E+00	-2.70283E+00
-1.52691E-01	2.01993E+00	1.54973E+00	-2.69307E+00
1.51644E+00	1.29497E+00	1.54946E+00	-2.68338E+00
1.91015E+00	-4.52644E-01	1.54920E+00	-2.67375E+00
7.50146E-01	-1.78091E+00	1.54893E+00	-2.66417E+00
-9.79352E-01	-1.63087E+00	1.54865E+00	-2.65464E+00
-1.86501E+00	-1.69327E-01	1.54837E+00	-2.64516E+00
-1.21818E+00	1.38367E+00	1.54810E+00	-2.63572E+00
3.91766E-01	1.77198E+00	1.54784E+00	-2.62632E+00
1.63574E+00	7.18255E-01	1.54758E+00	-2.61697E+00
1.52116E+00	-8.82540E-01	1.54734E+00	-2.60768E+00
1.82529E-01	-1.72158E+00	1.54711E+00	-2.59844E+00
-1.26201E+00	-1.14534E+00	1.54687E+00	-2.58926E+00
-1.64341E+00	3.37407E-01	1.54664E+00	-2.58013E+00
-6.86751E-01	1.50199E+00	1.54640E+00	-2.57105E+00
7.94559E-01	1.41842E+00	1.54617E+00	-2.56201E+00
1.58882E+00	1.92745E-01	1.54593E+00	-2.55302E+00
1.07630E+00	-1.15058E+00	1.54570E+00	-2.54408E+00
-2.88954E-01	-1.52381E+00	1.54548E+00	-2.53518E+00
-1.37880E+00	-6.55742E-01	1.54526E+00	-2.52634E+00
-1.32222E+00	7.14667E-01	1.54504E+00	-2.51755E+00
-2.00313E-01	1.46595E+00	1.54482E+00	-2.50880E+00
1.04854E+00	1.01094E+00	1.54460E+00	-2.50010E+00
1.41258E+00	-2.45835E-01	1.54437E+00	-2.49144E+00
6.25381E-01	-1.26536E+00	1.54415E+00	-2.48283E+00
-6.42159E-01	-1.23218E+00	1.54393E+00	-2.47425E+00
-1.35227E+00	-2.05617E-01	1.54372E+00	-2.46573E+00
-9.49106E-01	9.55119E-01	1.54350E+00	-2.45725E+00
2.07549E-01	1.30916E+00	1.54329E+00	-2.44882E+00
1.16092E+00	5.95733E-01	1.54307E+00	-2.44044E+00
1.14793E+00	-5.76411E-01	1.54284E+00	-2.43209E+00
2.08933E-01	-1.24712E+00	1.54260E+00	-2.42379E+00
-8.69643E-01	-8.90629E-01	1.54236E+00	-2.41551E+00
-1.21303E+00	1.73583E-01	1.54212E+00	-2.40726E+00
-5.66871E-01	1.06480E+00	1.54188E+00	-2.39904E+00
5.16793E-01	1.06914E+00	1.54166E+00	-2.39086E+00
1.14987E+00	2.10531E-01	1.54144E+00	-2.38271E+00
8.35397E-01	-7.91436E-01	1.54124E+00	-2.37461E+00
-1.43527E-01	-1.12370E+00	1.54104E+00	-2.36654E+00
-9.76355E-01	-5.38836E-01	1.54085E+00	-2.35851E+00
-9.95474E-01	4.62800E-01	1.54066E+00	-2.35053E+00
-2.10651E-01	1.05996E+00	1.54048E+00	-2.34259E+00
7.19915E-01	7.83251E-01	1.54030E+00	-2.33470E+00
1.04070E+00	-1.17007E-01	1.54012E+00	-2.32685E+00
5.11688E-01	-8.94993E-01	1.53993E+00	-2.31904E+00
-4.13889E-01	-9.26640E-01	1.53974E+00	-2.31126E+00
-9.76844E-01	-2.09493E-01	1.53955E+00	-2.30351E+00
-7.34041E-01	6.54543E-01	1.53937E+00	-2.29579E+00
9.36199E-02	9.63620E-01	1.53920E+00	-2.28812E+00
8.20148E-01	4.85485E-01	1.53904E+00	-2.28049E+00
8.62319E-01	-3.69666E-01	1.53887E+00	-2.27290E+00
2.07264E-01	-9.00035E-01	1.53869E+00	-2.26536E+00
-5.94780E-01	-6.87660E-01	1.53851E+00	-2.25786E+00
-8.92037E-01	7.31061E-02	1.53831E+00	-2.25039E+00
-4.60195E-01	7.51345E-01	1.53811E+00	-2.24294E+00
3.29684E-01	8.02246E-01	1.53791E+00	-2.23551E+00
8.29062E-01	2.04158E-01	1.53771E+00	-2.22810E+00
6.43937E-01	-5.40205E-01	1.53751E+00	-2.22073E+00
-5.51418E-02	-8.25582E-01	1.53733E+00	-2.21338E+00
-6.88085E-01	-4.35881E-01	1.53716E+00	-2.20606E+00
-7.46169E-01	2.93541E-01	1.53699E+00	-2.19878E+00
-2.00272E-01	7.63506E-01	1.53683E+00	-2.19153E+00
4.90368E-01	6.02760E-01	1.53668E+00	-2.18432E+00
7.63905E-01	-3.94394E-02	1.53653E+00	-2.17714E+00
4.12502E-01	-6.29962E-01	1.53639E+00	-2.17000E+00
-2.60936E-01	-6.93820E-01	1.53625E+00	-2.16290E+00
-7.02962E-01	-1.95766E-01	1.53611E+00	-2.15583E+00
-5.64016E-01	4.44857E-01	1.53597E+00	-2.14881E+00
2.58077E-02	7.06673E-01	1.53582E+00	-2.14181E+00
5.76562E-01	3.90082E-01	1.53566E+00	-2.13485E+00
6.44984E-01	-2.31508E-01	1.53550E+00	-2.12792E+00
1.90777E-01	-6.47056E-01	1.53534E+00	-2.12101E+00
-4.03346E-01	-5.27555E-01	1.53518E+00	-2.11413E+00
-6.53580E-01	1.40049E-02	1.53502E+00	-2.10727E+00
-3.68629E-01	5.27502E-01	1.53486E+00	-2.10044E+00
2.05006E-01	5.99425E-01	1.53471E+00	-2.09364E+00
5.95453E-01	1.85366E-01	1.53457E+00	-2.08686E+00
4.93273E-01	-3.65483E-01	1.53442E+00	-2.08012E+00
-3.81660E-03	-6.04339E-01	1.53428E+00	-2.07340E+00
-4.82463E-01	-3.48099E-01	1.53414E+00	-2.06671E+00
-5.56942E-01	1.81144E-01	1.53401E+00	-2.06006E+00
-1.79662E-01	5.47824E-01	1.53387E+00	-2.05343E+00
3.30948E-01	4.61067E-01	1.53374E+00	-2.04684E+00
5.58680E-01	4.89630E-03	1.53361E+00	-2.04028E+00
3.28495E-01	-4.41118E-01	1.53347E+00	-2.03375E+00
-1.59663E-01	-5.17345E-01	1.53333E+00	-2.02725E+00
-5.03882E-01	-1.73709E-01	1.53318E+00	-2.02076E+00
-4.30805E-01	2.99488E-01	1.53303E+00	-2.01430E+00
-1.23137E-02	5.16353E-01	1.53289E+00	-2.00787E+00
4.03163E-01	3.09809E-01	1.53275E+00	-2.00146E+00
4.80439E-01	-1.40374E-01	1.53260E+00	-1.99507E+00
1.67594E-01	-4.63347E-01	1.53246E+00	-1.98871E+00
-2.70818E-01	-4.02402E-01	1.53233E+00	-1.98236E+00
-4.77124E-01	-1.85945E-02	1.53220E+00	-1.97604E+00
-2.91995E-01	3.68349E-01	1.53207E+00	-1.96975E+00
1.23059E-01	4.46055E-01	1.53196E+00	-1.96349E+00
4.25959E-01	1.61389E-01	1.53184E+00	-1.95725E+00
3.75740E-01	-2.44724E-01	1.53173E+00	-1.95105E+00
2.38389E-02	-4.40775E-01	1.53161E+00	-1.94487E+00
-3.36417E-01	-2.75043E-01	1.53149E+00	-1.93872E+00
-4.14034E-01	1.07521E-01	1.53138E+00	-1.93259E+00
-1.55119E-01	3.91489E-01	1.53126E+00	-1.92650E+00
2.20975E-01	3.50730E-01	1.53113E+00	-1.92042E+00
4.07103E-01	2.81800E-02	1.53101E+00	-1.91437E+00
2.58928E-01	-3.07137E-01	1.53088E+00	-1.90834E+00
-9.36047E-02	-3.84219E-01	1.53076E+00	-1.90234E+00
-3.59710E-01	-1.48854E-01	1.53063E+00	-1.89635E+00
-3.27287E-01	1.99362E-01	1.53050E+00	-1.89037E+00
-3.17347E-02	3.75916E-01	1.53038E+00	-1.88442E+00
2.80288E-01	2.43633E-01	1.53027E+00	-1.87850E+00
3.56459E-01	-8.11795E-02	1.53015E+00	-1.87259E+00
1.42599E-01	-3.30431E-01	1.53004E+00	-1.86671E+00
-1.79729E-01	-3.05305E-01	1.52994E+00	-1.86086E+00
-3.47038E-01	-3.45849E-02	1.52983E+00	-1.85503E+00
-2.29119E-01	2.55684E-01	1.52973E+00	-1.84923E+00
7.00602E-02	3.30630E-01	1.52962E+00	-1.84344E+00
3.03446E-01	1.36428E-01	1.52952E+00	-1.83769E+00
2.84722E-01	-1.61870E-01	1.52941E+00	-1.83196E+00
3.67968E-02	-3.20307E-01	1.52930E+00	-1.82625E+00
-2.33157E-01	-2.15346E-01	1.52919E+00	-1.82056E+00
-3.06599E-01	6.01427E-02	1.52907E+00	-1.81489E+00
-1.30347E-01	2.78587E-01	1.52895E+00	-1.80924E+00
1.45649E-01	2.65446E-01	1.52883E+00	-1.80360E+00
2.95565E-01	3.84874E-02	1.52871E+00	-1.79798E+00
2.02314E-01	-2.12513E-01	1.52860E+00	-1.79238E+00
-5.13283E-02	-2.84245E-01	1.52848E+00	-1.78680E+00
-2.55702E-01	-1.24363E-01	1.52837E+00	-1.78123E+00
-2.47402E-01	1.30925E-01	1.52827E+00	-1.77568E+00
-3.97046E-02	2.72671E-01	1.52817E+00	-1.77015E+00
1.93613E-01	1.89979E-01	1.52808E+00	-1.76465E+00
2.63462E-01	-4.34755E-02	1.52799E+00	-1.75916E+00
1.18528E-01	-2.34623E-01	1.52791E+00	-1.75371E+00
-1.17580E-01	-2.30510E-01	1.52783E+00	-1.74828E+00
-2.51494E-01	-4.04946E-02	1.52775E+00	-1.74288E+00
-1.78302E-01	1.76325E-01	1.52765E+00	-1.73751E+00
3.65071E-02	2.44141E-01	1.52755E+00	-1.73215E+00
2.15221E-01	1.12839E-01	1.52743E+00	-1.72681E+00
2.14717E-01	-1.05466E-01	1.52730E+00	-1.72148E+00
4.09443E-02	-2.31905E-01	1.52718E+00	-1.71614E+00
-1.60497E-01	-1.67278E-01	1.52707E+00	-1.71082E+00
-2.26182E-01	3.03494E-02	1.52697E+00	-1.70551E+00
-1.07298E-01	1.97372E-01	1.52689E+00	-1.70022E+00
9.44897E-02	1.99949E-01	1.52681E+00	-1.69496E+00
2.13792E-01	4.10865E-02	1.52674E+00	-1.68972E+00
1.56867E-01	-1.46021E-01	1.52667E+00	-1.68451E+00
-2.48945E-02	-2.09497E-01	1.52659E+00	-1.67933E+00
-1.80944E-01	-1.01939E-01	1.52651E+00	-1.67416E+00
-1.86139E-01	8.45610E-02	1.52643E+00	-1.66902E+00
-4.09528E-02	1.97049E-01	1.52635E+00	-1.66389E+00
1.32785E-01	1.47041E-01	1.52626E+00	-1.65879E+00
1.93999E-01	-2.00853E-02	1.52616E+00	-1.65370E+00
9.67558E-02	-1.65833E-01	1.52606E+00	-1.64862E+00
-7.55648E-02	-1.73241E-01	1.52596E+00	-1.64356E+00
-1.81573E-01	-4.06075E-02	1.52586E+00	-1.63851E+00
-1.37766E-01	1.20695E-01	1.52576E+00	-1.63347E+00
1.58673E-02	1.79604E-01	1.52566E+00	-1.62844E+00
1.51944E-01	9.17442E-02	1.52557E+00	-1.62342E+00
1.61192E-01	-6.74293E-02	1.52548E+00	-1.61842E+00
4.00721E-02	-1.67271E-01	1.52540E+00	-1.61344E+00
-1.09642E-01	-1.29031E-01	1.52532E+00	-1.60848E+00
-1.66240E-01	1.21584E-02	1.52525E+00	-1.60354E+00
-8.69270E-02	1.39169E-01	1.52517E+00	-1.59862E+00
6.00866E-02	1.49938E-01	1.52510E+00	-1.59372E+00
1.54061E-01	3.93680E-02	1.52502E+00	-1.58883E+00
1.20803E-01	-9.95460E-02	1.52495E+00	-1.58397E+00
-8.91676E-03	-1.53836E-01	1.52487E+00	-1.57912E+00
-1.27428E-01	-8.22956E-02	1.52478E+00	-1.57429E+00
