jMRUI Data Textfile
 
Filename: Tau.txt
 
PointsInDataset: 2048
DatasetsInFile: 1
SamplingInterval: 5.00000E-01
ZeroOrderPhase: 0E0
BeginTime: 0E0
TransmitterFrequency: 1.27740E+08
MagneticField: 0E0
TypeOfNucleus: 0E0
NameOfPatient: 
DateOfExperiment: 
Spectrometer: Vespa-Simulation
AdditionalInfo: see 'readme' file for Vespa-Simulation output synopsis
 
  
Signal and FFT 
sig(real)	sig(imag)	fft(real)	fft(imag)
Signal 1 out of 1 in file
3.98534E+00	-4.29651E-07	2.19080E+00	-7.10888E+00
3.34996E+00	-2.04691E+00	2.18863E+00	-7.06698E+00
1.76232E+00	-3.43677E+00	2.18650E+00	-7.02555E+00
-2.83077E-01	-3.78434E+00	2.18440E+00	-6.98457E+00
-2.17329E+00	-3.02402E+00	2.18235E+00	-6.94402E+00
-3.36275E+00	-1.41842E+00	2.18033E+00	-6.90392E+00
-3.53249E+00	5.31449E-01	2.17834E+00	-6.86425E+00
-2.67569E+00	2.24372E+00	2.17639E+00	-6.82500E+00
-1.08688E+00	3.23106E+00	2.17446E+00	-6.78617E+00
7.38232E-01	3.24056E+00	2.17256E+00	-6.74774E+00
2.25844E+00	2.31758E+00	2.17068E+00	-6.70971E+00
3.04878E+00	7.77943E-01	2.16884E+00	-6.67207E+00
2.91995E+00	-8.98937E-01	2.16702E+00	-6.63481E+00
1.96150E+00	-2.22000E+00	2.16524E+00	-6.59793E+00
4.99880E-01	-2.82444E+00	2.16349E+00	-6.56144E+00
-1.01139E+00	-2.58219E+00	2.16176E+00	-6.52531E+00
-2.13291E+00	-1.61805E+00	2.16006E+00	-6.48954E+00
-2.56753E+00	-2.58921E-01	2.15838E+00	-6.45413E+00
-2.23841E+00	1.07569E+00	2.15673E+00	-6.41907E+00
-1.29633E+00	2.00329E+00	2.15511E+00	-6.38436E+00
-5.91503E-02	2.28799E+00	2.15351E+00	-6.34999E+00
1.09394E+00	1.89896E+00	2.15194E+00	-6.31595E+00
1.83851E+00	1.00359E+00	2.15039E+00	-6.28224E+00
1.99579E+00	-9.75082E-02	2.14887E+00	-6.24887E+00
1.57301E+00	-1.06994E+00	2.14737E+00	-6.21581E+00
7.45258E-01	-1.64666E+00	2.14589E+00	-6.18307E+00
-2.11050E-01	-1.70044E+00	2.14444E+00	-6.15065E+00
-1.00890E+00	-1.26831E+00	2.14300E+00	-6.11853E+00
-1.43618E+00	-5.24797E-01	2.14159E+00	-6.08671E+00
-1.41071E+00	2.83237E-01	2.14020E+00	-6.05519E+00
-9.91016E-01	9.17006E-01	2.13883E+00	-6.02397E+00
-3.43831E-01	1.21545E+00	2.13748E+00	-5.99303E+00
3.17360E-01	1.13428E+00	2.13616E+00	-5.96239E+00
8.01113E-01	7.45570E-01	2.13485E+00	-5.93203E+00
9.92447E-01	2.02221E-01	2.13355E+00	-5.90195E+00
8.77543E-01	-3.17817E-01	2.13228E+00	-5.87214E+00
5.34742E-01	-6.68287E-01	2.13101E+00	-5.84260E+00
9.83701E-02	-7.74407E-01	2.12977E+00	-5.81333E+00
-2.89902E-01	-6.45474E-01	2.12855E+00	-5.78431E+00
-5.25529E-01	-3.59666E-01	2.12734E+00	-5.75556E+00
-5.67617E-01	-2.93665E-02	2.12615E+00	-5.72706E+00
-4.41572E-01	2.39402E-01	2.12498E+00	-5.69881E+00
-2.20029E-01	3.79423E-01	2.12382E+00	-5.67082E+00
8.67180E-03	3.77236E-01	2.12267E+00	-5.64307E+00
1.72268E-01	2.67897E-01	2.12153E+00	-5.61555E+00
2.35931E-01	1.14211E-01	2.12042E+00	-5.58826E+00
2.07203E-01	-2.02974E-02	2.11932E+00	-5.56122E+00
1.25131E-01	-9.43632E-02	2.11825E+00	-5.53440E+00
3.95640E-02	-1.00170E-01	2.11718E+00	-5.50782E+00
-1.04801E-02	-6.02087E-02	2.11613E+00	-5.48147E+00
-1.11873E-02	-1.27311E-02	2.11509E+00	-5.45534E+00
2.36993E-02	7.37351E-03	2.11406E+00	-5.42943E+00
6.22693E-02	-1.56961E-02	2.11304E+00	-5.40373E+00
7.08910E-02	-7.23262E-02	2.11205E+00	-5.37825E+00
3.05978E-02	-1.32544E-01	2.11106E+00	-5.35297E+00
-5.32679E-02	-1.59880E-01	2.11009E+00	-5.32791E+00
-1.51955E-01	-1.28170E-01	2.10913E+00	-5.30306E+00
-2.24267E-01	-3.44019E-02	2.10817E+00	-5.27841E+00
-2.33270E-01	9.76012E-02	2.10723E+00	-5.25396E+00
-1.62170E-01	2.24285E-01	2.10630E+00	-5.22970E+00
-2.31383E-02	2.97768E-01	2.10538E+00	-5.20564E+00
1.44559E-01	2.83920E-01	2.10447E+00	-5.18176E+00
2.86758E-01	1.76354E-01	2.10357E+00	-5.15808E+00
3.52857E-01	1.01508E-03	2.10270E+00	-5.13458E+00
3.13972E-01	-1.90610E-01	2.10183E+00	-5.11128E+00
1.74386E-01	-3.37670E-01	2.10098E+00	-5.08816E+00
-2.80531E-02	-3.90137E-01	2.10013E+00	-5.06522E+00
-2.32899E-01	-3.26040E-01	2.09928E+00	-5.04247E+00
-3.76125E-01	-1.59922E-01	2.09845E+00	-5.01988E+00
-4.10866E-01	6.06015E-02	2.09762E+00	-4.99746E+00
-3.23021E-01	2.69292E-01	2.09682E+00	-4.97522E+00
-1.36495E-01	4.01944E-01	2.09603E+00	-4.95314E+00
9.36863E-02	4.16802E-01	2.09524E+00	-4.93125E+00
2.98347E-01	3.07930E-01	2.09446E+00	-4.90952E+00
4.15587E-01	1.07317E-01	2.09368E+00	-4.88796E+00
4.10043E-01	-1.24950E-01	2.09291E+00	-4.86656E+00
2.83745E-01	-3.19276E-01	2.09214E+00	-4.84530E+00
7.52238E-02	-4.18013E-01	2.09139E+00	-4.82420E+00
-1.52590E-01	-3.92895E-01	2.09066E+00	-4.80325E+00
-3.31877E-01	-2.53269E-01	2.08995E+00	-4.78246E+00
-4.10560E-01	-4.26004E-02	2.08924E+00	-4.76183E+00
-3.67710E-01	1.75408E-01	2.08854E+00	-4.74136E+00
-2.19067E-01	3.36419E-01	2.08785E+00	-4.72104E+00
-1.13475E-02	3.94816E-01	2.08715E+00	-4.70087E+00
1.92721E-01	3.36781E-01	2.08646E+00	-4.68083E+00
3.33582E-01	1.83339E-01	2.08579E+00	-4.66094E+00
3.72497E-01	-1.71293E-02	2.08513E+00	-4.64119E+00
3.02238E-01	-2.04306E-01	2.08448E+00	-4.62159E+00
1.47910E-01	-3.24321E-01	2.08383E+00	-4.60214E+00
-4.18552E-02	-3.45341E-01	2.08318E+00	-4.58282E+00
-2.10331E-01	-2.65973E-01	2.08253E+00	-4.56364E+00
-3.09775E-01	-1.14210E-01	2.08189E+00	-4.54458E+00
-3.15014E-01	6.23067E-02	2.08126E+00	-4.52565E+00
-2.29608E-01	2.11243E-01	2.08064E+00	-4.50685E+00
-8.32737E-02	2.91165E-01	2.08003E+00	-4.48818E+00
7.83109E-02	2.83036E-01	2.07943E+00	-4.46964E+00
2.07720E-01	1.94434E-01	2.07885E+00	-4.45123E+00
2.69715E-01	5.57639E-02	2.07827E+00	-4.43295E+00
2.50731E-01	-8.99892E-02	2.07771E+00	-4.41480E+00
1.61431E-01	-2.00563E-01	2.07715E+00	-4.39679E+00
3.20409E-02	-2.46575E-01	2.07658E+00	-4.37891E+00
-9.76929E-02	-2.19188E-01	2.07601E+00	-4.36114E+00
-1.90629E-01	-1.31273E-01	2.07543E+00	-4.34349E+00
-2.22779E-01	-1.21670E-02	2.07486E+00	-4.32594E+00
-1.89260E-01	1.01907E-01	2.07430E+00	-4.30849E+00
-1.04355E-01	1.78762E-01	2.07375E+00	-4.29117E+00
4.00426E-03	1.99202E-01	2.07322E+00	-4.27396E+00
1.03226E-01	1.61547E-01	2.07269E+00	-4.25686E+00
1.65749E-01	8.08251E-02	2.07217E+00	-4.23987E+00
1.76537E-01	-1.67786E-02	2.07167E+00	-4.22300E+00
1.36423E-01	-1.02265E-01	2.07117E+00	-4.20625E+00
6.06502E-02	-1.52269E-01	2.07067E+00	-4.18961E+00
-2.65689E-02	-1.55295E-01	2.07017E+00	-4.17309E+00
-9.96219E-02	-1.14065E-01	2.06967E+00	-4.15666E+00
-1.38888E-01	-4.36318E-02	2.06917E+00	-4.14034E+00
-1.35810E-01	3.38265E-02	2.06868E+00	-4.12411E+00
-9.44761E-02	9.58416E-02	2.06820E+00	-4.10798E+00
-2.94742E-02	1.26035E-01	2.06772E+00	-4.09196E+00
3.90259E-02	1.18253E-01	2.06725E+00	-4.07605E+00
9.13898E-02	7.75306E-02	2.06678E+00	-4.06024E+00
1.14005E-01	1.78217E-02	2.06631E+00	-4.04452E+00
1.02660E-01	-4.26107E-02	2.06584E+00	-4.02890E+00
6.30154E-02	-8.66317E-02	2.06539E+00	-4.01336E+00
8.29481E-03	-1.02971E-01	2.06494E+00	-3.99792E+00
-4.49744E-02	-8.89593E-02	2.06451E+00	-3.98258E+00
-8.18416E-02	-5.06534E-02	2.06408E+00	-3.96735E+00
-9.29966E-02	-5.32014E-04	2.06365E+00	-3.95221E+00
-7.69983E-02	4.64459E-02	2.06322E+00	-3.93716E+00
-4.01438E-02	7.71981E-02	2.06279E+00	-3.92220E+00
5.80189E-03	8.40598E-02	2.06236E+00	-3.90734E+00
4.72731E-02	6.65818E-02	2.06193E+00	-3.89256E+00
7.27921E-02	3.11969E-02	2.06151E+00	-3.87786E+00
7.60757E-02	-1.10001E-02	2.06110E+00	-3.86325E+00
5.74836E-02	-4.76459E-02	2.06069E+00	-3.84873E+00
2.35316E-02	-6.86538E-02	2.06029E+00	-3.83429E+00
-1.52878E-02	-6.89199E-02	2.05989E+00	-3.81994E+00
-4.76767E-02	-4.94859E-02	2.05949E+00	-3.80568E+00
-6.47562E-02	-1.69202E-02	2.05909E+00	-3.79149E+00
-6.24515E-02	1.88349E-02	2.05870E+00	-3.77739E+00
-4.23892E-02	4.74252E-02	2.05831E+00	-3.76337E+00
-1.11646E-02	6.10456E-02	2.05793E+00	-3.74942E+00
2.17689E-02	5.65267E-02	2.05756E+00	-3.73556E+00
4.69181E-02	3.60165E-02	2.05719E+00	-3.72178E+00
5.74505E-02	6.12460E-03	2.05683E+00	-3.70809E+00
5.10213E-02	-2.41592E-02	2.05646E+00	-3.69447E+00
3.02382E-02	-4.61465E-02	2.05609E+00	-3.68093E+00
1.70251E-03	-5.39014E-02	2.05573E+00	-3.66747E+00
-2.60542E-02	-4.58315E-02	2.05537E+00	-3.65407E+00
-4.50976E-02	-2.49531E-02	2.05502E+00	-3.64075E+00
-5.03416E-02	2.17157E-03	2.05467E+00	-3.62751E+00
-4.08877E-02	2.74716E-02	2.05433E+00	-3.61434E+00
-2.01057E-02	4.37524E-02	2.05399E+00	-3.60125E+00
5.52808E-03	4.67347E-02	2.05365E+00	-3.58823E+00
2.84207E-02	3.61521E-02	2.05332E+00	-3.57528E+00
4.21077E-02	1.56608E-02	2.05299E+00	-3.56240E+00
4.30684E-02	-8.39121E-03	2.05266E+00	-3.54959E+00
3.16113E-02	-2.89172E-02	2.05234E+00	-3.53686E+00
1.16122E-02	-4.01731E-02	2.05201E+00	-3.52419E+00
-1.07698E-02	-3.93565E-02	2.05170E+00	-3.51158E+00
-2.89780E-02	-2.72814E-02	2.05139E+00	-3.49906E+00
-3.79794E-02	-7.96633E-03	2.05108E+00	-3.48660E+00
-3.56358E-02	1.26754E-02	2.05077E+00	-3.47421E+00
-2.31879E-02	2.86413E-02	2.05046E+00	-3.46189E+00
-4.72649E-03	3.55787E-02	2.05015E+00	-3.44963E+00
1.41346E-02	3.19580E-02	2.04984E+00	-3.43743E+00
2.79572E-02	1.93690E-02	2.04954E+00	-3.42530E+00
3.30388E-02	1.89997E-03	2.04925E+00	-3.41323E+00
2.83882E-02	-1.51802E-02	2.04895E+00	-3.40123E+00
1.58615E-02	-2.69936E-02	2.04866E+00	-3.38929E+00
-5.24831E-04	-3.04407E-02	2.04836E+00	-3.37742E+00
-1.58682E-02	-2.49907E-02	2.04807E+00	-3.36560E+00
-2.58352E-02	-1.26899E-02	2.04778E+00	-3.35384E+00
-2.78707E-02	2.56920E-03	2.04749E+00	-3.34214E+00
-2.18277E-02	1.62640E-02	2.04721E+00	-3.33050E+00
-9.86996E-03	2.45725E-02	2.04693E+00	-3.31892E+00
4.27230E-03	2.54140E-02	2.04665E+00	-3.30740E+00
1.64517E-02	1.89462E-02	2.04638E+00	-3.29595E+00
2.33020E-02	7.39389E-03	2.04610E+00	-3.28454E+00
2.31463E-02	-5.69459E-03	2.04583E+00	-3.27320E+00
1.63777E-02	-1.65202E-02	2.04556E+00	-3.26191E+00
5.23806E-03	-2.21144E-02	2.04530E+00	-3.25067E+00
-6.90519E-03	-2.11294E-02	2.04504E+00	-3.23949E+00
-1.65617E-02	-1.41330E-02	2.04479E+00	-3.22837E+00
-2.10909E-02	-3.35923E-03	2.04454E+00	-3.21731E+00
-1.94035E-02	7.98830E-03	2.04428E+00	-3.20631E+00
-1.21972E-02	1.66672E-02	2.04403E+00	-3.19536E+00
-1.69389E-03	2.02966E-02	2.04378E+00	-3.18447E+00
9.02874E-03	1.79863E-02	2.04354E+00	-3.17363E+00
1.69144E-02	1.05369E-02	2.04329E+00	-3.16284E+00
1.97747E-02	1.70760E-04	2.04304E+00	-3.15211E+00
1.68708E-02	-1.01096E-02	2.04279E+00	-3.14143E+00
