jMRUI Data Textfile
 
Filename: 2HG.txt
 
PointsInDataset: 2048
DatasetsInFile: 1
SamplingInterval: 5.00000E-01
ZeroOrderPhase: 0E0
BeginTime: 0E0
TransmitterFrequency: 1.27740E+08
MagneticField: 0E0
TypeOfNucleus: 0E0
NameOfPatient: 
DateOfExperiment: 
Spectrometer: Vespa-Simulation
AdditionalInfo: see 'readme' file for Vespa-Simulation output synopsis
 
  
Signal and FFT 
sig(real)	sig(imag)	fft(real)	fft(imag)
Signal 1 out of 1 in file
1.60548E+00	-3.51023E-01	6.86691E-01	-3.04487E+00
7.44859E-01	-1.22733E+00	6.83499E-01	-3.02019E+00
-3.54254E-01	-1.01801E+00	6.80445E-01	-2.99597E+00
-6.81910E-01	-9.10288E-02	6.77525E-01	-2.97221E+00
-6.43882E-02	5.34591E-01	6.74732E-01	-2.94890E+00
7.29875E-01	2.35345E-01	6.72059E-01	-2.92603E+00
8.21909E-01	-6.38680E-01	6.69501E-01	-2.90357E+00
9.20162E-02	-1.19149E+00	6.67050E-01	-2.88152E+00
-7.74519E-01	-9.02220E-01	6.64703E-01	-2.85986E+00
-1.02785E+00	-8.59587E-02	6.62455E-01	-2.83859E+00
-5.70254E-01	5.03719E-01	6.60305E-01	-2.81769E+00
4.23209E-02	4.39562E-01	6.58247E-01	-2.79714E+00
2.18615E-01	-3.28228E-02	6.56279E-01	-2.77695E+00
-1.12244E-01	-3.36686E-01	6.54396E-01	-2.75711E+00
-5.26192E-01	-1.59766E-01	6.52592E-01	-2.73759E+00
-5.87627E-01	3.02523E-01	6.50864E-01	-2.71840E+00
-2.53241E-01	6.20599E-01	6.49209E-01	-2.69952E+00
1.64898E-01	5.65389E-01	6.47627E-01	-2.68094E+00
3.51459E-01	2.68706E-01	6.46115E-01	-2.66267E+00
2.62415E-01	2.30915E-02	6.44671E-01	-2.64468E+00
9.11613E-02	-1.13164E-02	6.43290E-01	-2.62697E+00
3.53197E-02	9.44249E-02	6.41970E-01	-2.60954E+00
1.26376E-01	1.68595E-01	6.40709E-01	-2.59238E+00
2.54072E-01	1.16553E-01	6.39504E-01	-2.57548E+00
3.03413E-01	-2.40117E-02	6.38353E-01	-2.55883E+00
2.48824E-01	-1.56659E-01	6.37255E-01	-2.54244E+00
1.41648E-01	-2.19917E-01	6.36207E-01	-2.52628E+00
4.34421E-02	-2.16093E-01	6.35209E-01	-2.51036E+00
-1.80974E-02	-1.80480E-01	6.34258E-01	-2.49467E+00
-4.77125E-02	-1.43586E-01	6.33352E-01	-2.47921E+00
-6.16601E-02	-1.17792E-01	6.32487E-01	-2.46397E+00
-7.36695E-02	-1.02152E-01	6.31663E-01	-2.44894E+00
-9.09537E-02	-8.93095E-02	6.30879E-01	-2.43413E+00
-1.13346E-01	-7.02713E-02	6.30134E-01	-2.41951E+00
-1.34221E-01	-3.91980E-02	6.29429E-01	-2.40509E+00
-1.44606E-01	3.42382E-03	6.28762E-01	-2.39087E+00
-1.37556E-01	5.17455E-02	6.28131E-01	-2.37685E+00
-1.09477E-01	9.67138E-02	6.27533E-01	-2.36301E+00
-6.14317E-02	1.26151E-01	6.26967E-01	-2.34936E+00
-3.96171E-03	1.27080E-01	6.26430E-01	-2.33588E+00
4.08862E-02	9.61387E-02	6.25921E-01	-2.32259E+00
5.14890E-02	5.10796E-02	6.25439E-01	-2.30946E+00
2.88304E-02	2.51433E-02	6.24985E-01	-2.29650E+00
5.02645E-03	3.89364E-02	6.24557E-01	-2.28370E+00
1.90876E-02	7.40448E-02	6.24155E-01	-2.27106E+00
7.57666E-02	8.20282E-02	6.23779E-01	-2.25857E+00
1.30909E-01	3.03411E-02	6.23428E-01	-2.24624E+00
1.27821E-01	-5.78023E-02	6.23102E-01	-2.23406E+00
5.51916E-02	-1.16148E-01	6.22800E-01	-2.22203E+00
-3.34022E-02	-9.64754E-02	6.22522E-01	-2.21014E+00
-6.52502E-02	-1.92649E-02	6.22267E-01	-2.19839E+00
-1.86250E-02	4.08818E-02	6.22031E-01	-2.18679E+00
5.34060E-02	2.55132E-02	6.21812E-01	-2.17532E+00
7.25408E-02	-5.00822E-02	6.21610E-01	-2.16399E+00
1.11243E-02	-1.10257E-01	6.21425E-01	-2.15279E+00
-8.01983E-02	-9.13907E-02	6.21257E-01	-2.14170E+00
-1.20063E-01	-2.92967E-03	6.21110E-01	-2.13075E+00
-7.27054E-02	8.12480E-02	6.20984E-01	-2.11991E+00
1.95210E-02	9.13531E-02	6.20878E-01	-2.10920E+00
7.60580E-02	2.46418E-02	6.20789E-01	-2.09861E+00
5.11939E-02	-5.42331E-02	6.20715E-01	-2.08814E+00
-2.66889E-02	-7.29859E-02	6.20654E-01	-2.07778E+00
-8.28497E-02	-1.59698E-02	6.20604E-01	-2.06754E+00
-6.38181E-02	6.35108E-02	6.20565E-01	-2.05741E+00
1.53365E-02	9.18050E-02	6.20539E-01	-2.04739E+00
8.47307E-02	4.07995E-02	6.20525E-01	-2.03747E+00
8.18785E-02	-4.65939E-02	6.20524E-01	-2.02765E+00
7.89120E-03	-9.39310E-02	6.20535E-01	-2.01793E+00
-7.23593E-02	-5.95355E-02	6.20558E-01	-2.00832E+00
-8.78823E-02	2.50437E-02	6.20593E-01	-1.99880E+00
-2.64209E-02	8.26022E-02	6.20639E-01	-1.98938E+00
5.32216E-02	6.09269E-02	6.20697E-01	-1.98005E+00
7.50462E-02	-1.78927E-02	6.20767E-01	-1.97082E+00
1.74864E-02	-7.70853E-02	6.20849E-01	-1.96168E+00
-6.50237E-02	-5.74224E-02	6.20943E-01	-1.95263E+00
-9.28267E-02	2.57309E-02	6.21047E-01	-1.94367E+00
-3.69713E-02	9.60427E-02	6.21160E-01	-1.93480E+00
5.27360E-02	8.86177E-02	6.21280E-01	-1.92601E+00
9.51680E-02	1.17039E-02	6.21408E-01	-1.91732E+00
5.51529E-02	-6.19176E-02	6.21543E-01	-1.90870E+00
-2.41286E-02	-6.51508E-02	6.21686E-01	-1.90017E+00
-6.41219E-02	-4.22658E-06	6.21837E-01	-1.89172E+00
-2.63939E-02	6.63523E-02	6.21995E-01	-1.88334E+00
5.21967E-02	6.71461E-02	6.22160E-01	-1.87505E+00
9.65470E-02	-1.13260E-03	6.22332E-01	-1.86683E+00
6.46349E-02	-7.75428E-02	6.22509E-01	-1.85869E+00
-1.49719E-02	-9.52987E-02	6.22693E-01	-1.85062E+00
-7.22380E-02	-4.28519E-02	6.22883E-01	-1.84262E+00
-6.08784E-02	2.84814E-02	6.23081E-01	-1.83469E+00
1.50095E-03	5.38387E-02	6.23288E-01	-1.82683E+00
5.24851E-02	1.33755E-02	6.23502E-01	-1.81904E+00
4.24953E-02	-5.21955E-02	6.23724E-01	-1.81132E+00
-2.16992E-02	-7.99653E-02	6.23951E-01	-1.80367E+00
-8.43537E-02	-4.09283E-02	6.24183E-01	-1.79609E+00
-9.03303E-02	3.49878E-02	6.24419E-01	-1.78858E+00
-3.32539E-02	8.52635E-02	6.24660E-01	-1.78113E+00
3.86903E-02	6.91343E-02	6.24905E-01	-1.77374E+00
6.42705E-02	3.56854E-03	6.25155E-01	-1.76642E+00
2.31157E-02	-5.05460E-02	6.25409E-01	-1.75916E+00
-4.47346E-02	-4.17296E-02	6.25665E-01	-1.75196E+00
-7.28274E-02	2.47030E-02	6.25925E-01	-1.74482E+00
-2.84626E-02	8.85475E-02	6.26188E-01	-1.73774E+00
5.46425E-02	8.77468E-02	6.26455E-01	-1.73072E+00
1.03920E-01	1.67048E-02	6.26727E-01	-1.72375E+00
7.41042E-02	-6.50550E-02	6.27004E-01	-1.71683E+00
-8.58194E-03	-8.57342E-02	6.27287E-01	-1.70997E+00
-6.82395E-02	-2.86524E-02	6.27575E-01	-1.70317E+00
-4.96239E-02	5.01734E-02	6.27867E-01	-1.69642E+00
2.88630E-02	7.34850E-02	6.28164E-01	-1.68973E+00
9.13440E-02	1.58566E-02	6.28464E-01	-1.68309E+00
7.56942E-02	-7.15556E-02	6.28768E-01	-1.67650E+00
-7.88833E-03	-1.08690E-01	6.29073E-01	-1.66997E+00
-8.65090E-02	-6.12051E-02	6.29380E-01	-1.66349E+00
-9.23139E-02	2.84878E-02	6.29689E-01	-1.65706E+00
-2.38920E-02	8.13673E-02	6.29999E-01	-1.65067E+00
5.44869E-02	5.36216E-02	6.30311E-01	-1.64434E+00
7.20675E-02	-2.58247E-02	6.30627E-01	-1.63805E+00
1.38074E-02	-8.32629E-02	6.30946E-01	-1.63180E+00
-6.83169E-02	-6.55254E-02	6.31267E-01	-1.62561E+00
-1.01478E-01	1.47450E-02	6.31590E-01	-1.61946E+00
-5.43717E-02	9.05053E-02	6.31917E-01	-1.61335E+00
3.59158E-02	9.70395E-02	6.32247E-01	-1.60729E+00
9.39805E-02	2.71651E-02	6.32579E-01	-1.60128E+00
6.94394E-02	-6.03065E-02	6.32914E-01	-1.59530E+00
-1.76720E-02	-8.82418E-02	6.33253E-01	-1.58937E+00
-8.97797E-02	-2.85985E-02	6.33595E-01	-1.58349E+00
-7.76096E-02	6.79815E-02	6.33938E-01	-1.57765E+00
1.46430E-02	1.12035E-01	6.34282E-01	-1.57185E+00
1.06217E-01	5.62310E-02	6.34628E-01	-1.56609E+00
1.09965E-01	-5.51154E-02	6.34974E-01	-1.56038E+00
1.63350E-02	-1.20635E-01	6.35320E-01	-1.55470E+00
-9.07399E-02	-7.61831E-02	6.35667E-01	-1.54906E+00
-1.09421E-01	3.92761E-02	6.36016E-01	-1.54347E+00
-1.94259E-02	1.15632E-01	6.36365E-01	-1.53791E+00
9.36349E-02	7.70411E-02	6.36714E-01	-1.53238E+00
1.18948E-01	-4.13833E-02	6.37064E-01	-1.52690E+00
2.98109E-02	-1.25179E-01	6.37416E-01	-1.52145E+00
-8.83666E-02	-9.26578E-02	6.37769E-01	-1.51603E+00
-1.21918E-01	2.41242E-02	6.38124E-01	-1.51065E+00
-4.10355E-02	1.11730E-01	6.38485E-01	-1.50530E+00
7.27055E-02	8.81757E-02	6.38850E-01	-1.49999E+00
1.09665E-01	-1.82647E-02	6.39220E-01	-1.49472E+00
3.96493E-02	-1.01772E-01	6.39591E-01	-1.48949E+00
-6.40448E-02	-8.55641E-02	6.39962E-01	-1.48429E+00
-1.02507E-01	7.13845E-03	6.40329E-01	-1.47913E+00
-4.69604E-02	8.43069E-02	6.40692E-01	-1.47401E+00
4.20120E-02	7.84069E-02	6.41051E-01	-1.46891E+00
8.14261E-02	5.45768E-03	6.41410E-01	-1.46385E+00
4.41653E-02	-6.15298E-02	6.41772E-01	-1.45881E+00
-2.62379E-02	-6.65728E-02	6.42137E-01	-1.45380E+00
-6.63519E-02	-1.57586E-02	6.42506E-01	-1.44882E+00
-4.98624E-02	4.09743E-02	6.42877E-01	-1.44388E+00
3.39227E-04	5.99971E-02	6.43248E-01	-1.43897E+00
4.22297E-02	3.49249E-02	6.43620E-01	-1.43408E+00
4.88983E-02	-9.53403E-03	6.43993E-01	-1.42923E+00
2.06728E-02	-4.14443E-02	6.44368E-01	-1.42441E+00
-2.14400E-02	-4.02401E-02	6.44745E-01	-1.41961E+00
-4.80503E-02	-5.65356E-03	6.45123E-01	-1.41485E+00
-3.66639E-02	3.98414E-02	6.45502E-01	-1.41012E+00
1.04376E-02	6.03437E-02	6.45880E-01	-1.40542E+00
5.93763E-02	3.24431E-02	6.46256E-01	-1.40075E+00
6.59616E-02	-2.82498E-02	6.46630E-01	-1.39610E+00
1.68201E-02	-7.08505E-02	6.47004E-01	-1.39149E+00
-4.88714E-02	-5.23424E-02	6.47378E-01	-1.38689E+00
-6.86928E-02	1.59474E-02	6.47754E-01	-1.38232E+00
-1.80640E-02	7.02732E-02	6.48131E-01	-1.37778E+00
5.81755E-02	5.32848E-02	6.48509E-01	-1.37327E+00
8.38423E-02	-2.50827E-02	6.48886E-01	-1.36878E+00
2.75727E-02	-9.08169E-02	6.49262E-01	-1.36432E+00
-6.07530E-02	-7.71555E-02	6.49637E-01	-1.35988E+00
-9.60736E-02	6.08298E-03	6.50014E-01	-1.35547E+00
-4.36202E-02	7.89204E-02	6.50394E-01	-1.35108E+00
4.41488E-02	7.05602E-02	6.50777E-01	-1.34671E+00
7.94132E-02	-8.70661E-03	6.51165E-01	-1.34237E+00
2.75522E-02	-7.77450E-02	6.51555E-01	-1.33806E+00
-5.85943E-02	-6.66946E-02	6.51943E-01	-1.33378E+00
-9.31922E-02	1.35224E-02	6.52327E-01	-1.32952E+00
-4.34152E-02	8.45196E-02	6.52705E-01	-1.32529E+00
4.06384E-02	8.02321E-02	6.53078E-01	-1.32108E+00
7.92519E-02	1.04052E-02	6.53450E-01	-1.31689E+00
4.18807E-02	-5.40133E-02	6.53824E-01	-1.31272E+00
-2.76486E-02	-5.35964E-02	6.54201E-01	-1.30856E+00
-5.94927E-02	4.27271E-03	6.54582E-01	-1.30443E+00
-2.60520E-02	5.90240E-02	6.54962E-01	-1.30033E+00
3.68929E-02	5.90034E-02	6.55342E-01	-1.29624E+00
7.04125E-02	7.84958E-03	6.55721E-01	-1.29218E+00
4.85472E-02	-4.57910E-02	6.56101E-01	-1.28813E+00
-3.25837E-03	-5.75730E-02	6.56485E-01	-1.28411E+00
-3.79844E-02	-2.53311E-02	6.56872E-01	-1.28011E+00
-3.05982E-02	1.58677E-02	6.57260E-01	-1.27613E+00
4.69937E-03	2.93201E-02	6.57649E-01	-1.27218E+00
