jMRUI Data Textfile
 
Filename: Cr.txt
 
PointsInDataset: 2048
DatasetsInFile: 1
SamplingInterval: 5.00000E-01
ZeroOrderPhase: 0E0
BeginTime: 0E0
TransmitterFrequency: 1.27740E+08
MagneticField: 0E0
TypeOfNucleus: 0E0
NameOfPatient: 
DateOfExperiment: 
Spectrometer: Vespa-Simulation
AdditionalInfo: see 'readme' file for Vespa-Simulation output synopsis
 
  
Signal and FFT 
sig(real)	sig(imag)	fft(real)	fft(imag)
Signal 1 out of 1 in file
6.00000E+00	7.97973E-17	3.45235E+00	-9.34876E+00
4.88207E+00	-1.75484E+00	3.44562E+00	-9.26139E+00
2.22766E+00	-3.00736E+00	3.43908E+00	-9.17531E+00
-7.81937E-01	-3.45325E+00	3.43272E+00	-9.09050E+00
-2.89995E+00	-3.01865E+00	3.42653E+00	-9.00691E+00
-3.38901E+00	-1.89923E+00	3.42050E+00	-8.92452E+00
-2.32284E+00	-5.19291E-01	3.41463E+00	-8.84329E+00
-4.85212E-01	6.02529E-01	3.40890E+00	-8.76318E+00
1.06037E+00	1.05168E+00	3.40331E+00	-8.68416E+00
1.50177E+00	7.04862E-01	3.39786E+00	-8.60620E+00
6.48519E-01	-1.87688E-01	3.39256E+00	-8.52927E+00
-1.02351E+00	-1.08668E+00	3.38740E+00	-8.45335E+00
-2.64795E+00	-1.40120E+00	3.38237E+00	-8.37842E+00
-3.40576E+00	-7.81562E-01	3.37747E+00	-8.30445E+00
-2.90372E+00	6.74972E-01	3.37268E+00	-8.23142E+00
-1.32227E+00	2.42135E+00	3.36800E+00	-8.15929E+00
7.11829E-01	3.68440E+00	3.36345E+00	-8.08804E+00
2.43775E+00	3.82264E+00	3.35903E+00	-8.01766E+00
3.29382E+00	2.64841E+00	3.35473E+00	-7.94813E+00
3.11972E+00	5.49284E-01	3.35054E+00	-7.87943E+00
2.15850E+00	-1.66384E+00	3.34645E+00	-7.81156E+00
8.91372E-01	-3.12010E+00	3.34245E+00	-7.74449E+00
-1.93372E-01	-3.29119E+00	3.33854E+00	-7.67819E+00
-7.87036E-01	-2.23579E+00	3.33470E+00	-7.61263E+00
-8.35881E-01	-5.62695E-01	3.33096E+00	-7.54779E+00
-5.02350E-01	8.71260E-01	3.32731E+00	-7.48365E+00
-5.74721E-02	1.37987E+00	3.32375E+00	-7.42021E+00
2.36577E-01	7.75969E-01	3.32027E+00	-7.35746E+00
2.11978E-01	-5.51180E-01	3.31688E+00	-7.29537E+00
-1.64758E-01	-1.84360E+00	3.31356E+00	-7.23392E+00
-7.92386E-01	-2.35916E+00	3.31032E+00	-7.17311E+00
-1.46440E+00	-1.73951E+00	3.30716E+00	-7.11291E+00
-1.92444E+00	-1.81239E-01	3.30408E+00	-7.05330E+00
-1.94452E+00	1.66694E+00	3.30108E+00	-6.99428E+00
-1.41284E+00	3.02130E+00	3.29817E+00	-6.93584E+00
-4.01397E-01	3.33168E+00	3.29534E+00	-6.87798E+00
8.24629E-01	2.52272E+00	3.29257E+00	-6.82070E+00
1.87894E+00	9.99456E-01	3.28987E+00	-6.76396E+00
2.39591E+00	-5.69429E-01	3.28720E+00	-6.70777E+00
2.18916E+00	-1.57277E+00	3.28458E+00	-6.65208E+00
1.35136E+00	-1.72239E+00	3.28201E+00	-6.59688E+00
2.36311E-01	-1.14445E+00	3.27949E+00	-6.54216E+00
-6.84239E-01	-2.70594E-01	3.27704E+00	-6.48791E+00
-1.03269E+00	3.98399E-01	3.27465E+00	-6.43412E+00
-7.07091E-01	5.32332E-01	3.27232E+00	-6.38079E+00
6.13954E-02	1.03119E-01	3.27003E+00	-6.32791E+00
8.12763E-01	-6.38828E-01	3.26779E+00	-6.27545E+00
1.08179E+00	-1.31136E+00	3.26560E+00	-6.22341E+00
6.34230E-01	-1.58642E+00	3.26348E+00	-6.17175E+00
-4.02923E-01	-1.32590E+00	3.26143E+00	-6.12050E+00
-1.58750E+00	-6.16206E-01	3.25946E+00	-6.06965E+00
-2.36719E+00	2.94906E-01	3.25757E+00	-6.01922E+00
-2.34577E+00	1.11400E+00	3.25573E+00	-5.96921E+00
-1.47912E+00	1.61185E+00	3.25391E+00	-5.91961E+00
-1.02856E-01	1.68760E+00	3.25209E+00	-5.87039E+00
1.22287E+00	1.37599E+00	3.25025E+00	-5.82151E+00
1.97546E+00	8.12806E-01	3.24843E+00	-5.77294E+00
1.90960E+00	1.81780E-01	3.24664E+00	-5.72463E+00
1.15892E+00	-3.38844E-01	3.24492E+00	-5.67662E+00
1.53765E-01	-6.21227E-01	3.24328E+00	-5.62890E+00
-5.98828E-01	-6.20884E-01	3.24171E+00	-5.58149E+00
-7.60918E-01	-3.91731E-01	3.24021E+00	-5.53439E+00
-3.14873E-01	-7.36954E-02	3.23878E+00	-5.48759E+00
4.48327E-01	1.53092E-01	3.23742E+00	-5.44111E+00
1.08926E+00	1.39929E-01	3.23611E+00	-5.39496E+00
1.24249E+00	-1.57979E-01	3.23481E+00	-5.34914E+00
7.90205E-01	-6.43792E-01	3.23349E+00	-5.30360E+00
-9.32372E-02	-1.10274E+00	3.23216E+00	-5.25831E+00
-1.03767E+00	-1.28870E+00	3.23083E+00	-5.21324E+00
-1.65802E+00	-1.04051E+00	3.22953E+00	-5.16836E+00
-1.72765E+00	-3.73141E-01	3.22829E+00	-5.12368E+00
-1.26382E+00	5.05734E-01	3.22711E+00	-5.07922E+00
-4.95389E-01	1.27224E+00	3.22599E+00	-5.03498E+00
2.59612E-01	1.62687E+00	3.22493E+00	-4.99097E+00
7.39304E-01	1.43429E+00	3.22390E+00	-4.94719E+00
8.38169E-01	7.93054E-01	3.22291E+00	-4.90363E+00
6.23956E-01	-4.05029E-03	3.22194E+00	-4.86027E+00
2.77525E-01	-6.04676E-01	3.22099E+00	-4.81710E+00
-4.51018E-03	-7.63031E-01	3.22008E+00	-4.77412E+00
-9.49719E-02	-4.56483E-01	3.21918E+00	-4.73132E+00
2.44753E-02	1.06492E-01	3.21831E+00	-4.68868E+00
2.76062E-01	5.92119E-01	3.21747E+00	-4.64620E+00
5.33192E-01	7.09010E-01	3.21666E+00	-4.60388E+00
6.75129E-01	3.54557E-01	3.21587E+00	-4.56169E+00
6.27699E-01	-3.32849E-01	3.21511E+00	-4.51965E+00
3.81144E-01	-1.04083E+00	3.21439E+00	-4.47773E+00
-1.20353E-02	-1.43519E+00	3.21372E+00	-4.43594E+00
-4.53056E-01	-1.32101E+00	3.21308E+00	-4.39427E+00
-8.22100E-01	-7.33549E-01	3.21248E+00	-4.35273E+00
-1.00990E+00	8.29452E-02	3.21192E+00	-4.31130E+00
-9.52381E-01	7.94817E-01	3.21139E+00	-4.27000E+00
-6.58319E-01	1.13512E+00	3.21089E+00	-4.22879E+00
-2.16705E-01	1.01999E+00	3.21042E+00	-4.18769E+00
2.26155E-01	5.71845E-01	3.20999E+00	-4.14667E+00
5.18613E-01	4.49888E-02	3.20958E+00	-4.10574E+00
5.66645E-01	-3.04399E-01	3.20921E+00	-4.06490E+00
3.79408E-01	-3.37374E-01	3.20887E+00	-4.02413E+00
7.19622E-02	-8.52990E-02	3.20855E+00	-3.98343E+00
-1.82710E-01	2.82335E-01	3.20826E+00	-3.94279E+00
-2.34578E-01	5.51823E-01	3.20800E+00	-3.90219E+00
-3.30638E-02	5.70355E-01	3.20777E+00	-3.86165E+00
3.40149E-01	3.12040E-01	3.20758E+00	-3.82114E+00
7.02580E-01	-1.21297E-01	3.20741E+00	-3.78067E+00
8.55657E-01	-5.57027E-01	3.20728E+00	-3.74023E+00
6.83313E-01	-8.32732E-01	3.20717E+00	-3.69980E+00
2.15537E-01	-8.62032E-01	3.20710E+00	-3.65939E+00
-3.77193E-01	-6.58693E-01	3.20707E+00	-3.61898E+00
-8.58444E-01	-3.15876E-01	3.20709E+00	-3.57857E+00
-1.03509E+00	4.19649E-02	3.20714E+00	-3.53818E+00
-8.47822E-01	3.09239E-01	3.20721E+00	-3.49778E+00
-3.98152E-01	4.31274E-01	3.20732E+00	-3.45737E+00
1.01588E-01	4.10642E-01	3.20745E+00	-3.41692E+00
4.30694E-01	2.93424E-01	3.20762E+00	-3.37643E+00
4.64275E-01	1.45962E-01	3.20784E+00	-3.33591E+00
2.28283E-01	3.18791E-02	3.20809E+00	-3.29535E+00
-1.20366E-01	-5.57355E-03	3.20839E+00	-3.25474E+00
-3.76574E-01	4.50971E-02	3.20871E+00	-3.21408E+00
-3.90203E-01	1.59529E-01	3.20906E+00	-3.17335E+00
-1.38339E-01	2.82669E-01	3.20946E+00	-3.13254E+00
2.67298E-01	3.45405E-01	3.20990E+00	-3.09164E+00
6.38526E-01	2.90846E-01	3.21038E+00	-3.05066E+00
8.03126E-01	1.02037E-01	3.21091E+00	-3.00959E+00
6.85026E-01	-1.81509E-01	3.21148E+00	-2.96841E+00
3.34837E-01	-4.70111E-01	3.21209E+00	-2.92713E+00
-1.00546E-01	-6.55378E-01	3.21274E+00	-2.88573E+00
-4.50431E-01	-6.56358E-01	3.21342E+00	-2.84420E+00
-5.97210E-01	-4.59764E-01	3.21415E+00	-2.80253E+00
-5.21796E-01	-1.33241E-01	3.21493E+00	-2.76071E+00
-2.99641E-01	1.98611E-01	3.21576E+00	-2.71874E+00
-5.48741E-02	4.07517E-01	3.21664E+00	-2.67660E+00
1.01414E-01	4.20324E-01	3.21757E+00	-2.63430E+00
1.18180E-01	2.54316E-01	3.21855E+00	-2.59182E+00
1.77979E-02	1.02101E-02	3.21957E+00	-2.54914E+00
-1.25380E-01	-1.76019E-01	3.22065E+00	-2.50626E+00
-2.25983E-01	-1.99992E-01	3.22178E+00	-2.46316E+00
-2.26670E-01	-4.16300E-02	3.22298E+00	-2.41985E+00
-1.18628E-01	2.23132E-01	3.22423E+00	-2.37632E+00
6.14602E-02	4.58408E-01	3.22553E+00	-2.33254E+00
2.51828E-01	5.35026E-01	3.22688E+00	-2.28851E+00
3.91064E-01	3.94848E-01	3.22829E+00	-2.24422E+00
4.38218E-01	8.08648E-02	3.22975E+00	-2.19964E+00
3.82163E-01	-2.81991E-01	3.23127E+00	-2.15477E+00
2.40845E-01	-5.45602E-01	3.23285E+00	-2.10958E+00
5.38323E-02	-6.07839E-01	3.23450E+00	-2.06408E+00
-1.28702E-01	-4.58310E-01	3.23621E+00	-2.01823E+00
-2.58985E-01	-1.79183E-01	3.23800E+00	-1.97203E+00
-3.04841E-01	9.76565E-02	3.23987E+00	-1.92546E+00
-2.60875E-01	2.54678E-01	3.24183E+00	-1.87851E+00
-1.52639E-01	2.42150E-01	3.24388E+00	-1.83117E+00
-2.98374E-02	9.59061E-02	3.24602E+00	-1.78342E+00
5.18406E-02	-8.68399E-02	3.24826E+00	-1.73526E+00
5.46748E-02	-1.99176E-01	3.25060E+00	-1.68667E+00
-2.18420E-02	-1.76924E-01	3.25303E+00	-1.63765E+00
-1.36885E-01	-2.66132E-02	3.25554E+00	-1.58817E+00
-2.24133E-01	1.82273E-01	3.25815E+00	-1.53820E+00
-2.22388E-01	3.54096E-01	3.26084E+00	-1.48772E+00
-1.07291E-01	4.12911E-01	3.26362E+00	-1.43670E+00
9.19736E-02	3.35072E-01	3.26651E+00	-1.38511E+00
3.01140E-01	1.54961E-01	3.26953E+00	-1.33295E+00
4.32562E-01	-5.56054E-02	3.27268E+00	-1.28019E+00
4.26052E-01	-2.21767E-01	3.27596E+00	-1.22682E+00
2.78956E-01	-2.96248E-01	3.27936E+00	-1.17282E+00
4.99129E-02	-2.73715E-01	3.28288E+00	-1.11816E+00
-1.66851E-01	-1.85210E-01	3.28653E+00	-1.06281E+00
-2.84962E-01	-7.88697E-02	3.29032E+00	-1.00672E+00
-2.66066E-01	2.14923E-03	3.29427E+00	-9.49869E-01
-1.36929E-01	3.48578E-02	3.29838E+00	-8.92237E-01
2.51315E-02	2.04349E-02	3.30268E+00	-8.33806E-01
1.31190E-01	-2.15783E-02	3.30715E+00	-7.74552E-01
1.24720E-01	-6.37631E-02	3.31179E+00	-7.14445E-01
8.84090E-03	-8.12479E-02	3.31660E+00	-6.53439E-01
-1.56351E-01	-5.91941E-02	3.32158E+00	-5.91482E-01
-2.84463E-01	3.25592E-03	3.32674E+00	-5.28517E-01
-3.05734E-01	9.23123E-02	3.33212E+00	-4.64498E-01
-2.00814E-01	1.82365E-01	3.33775E+00	-3.99394E-01
-9.24862E-03	2.42496E-01	3.34364E+00	-3.33178E-01
1.90518E-01	2.46577E-01	3.34980E+00	-2.65817E-01
3.18723E-01	1.84166E-01	3.35623E+00	-1.97264E-01
3.30559E-01	6.77398E-02	3.36295E+00	-1.27473E-01
2.33956E-01	-6.83519E-02	3.36997E+00	-5.64050E-02
8.17223E-02	-1.78925E-01	3.37729E+00	1.59866E-02
-5.62982E-02	-2.25868E-01	3.38490E+00	8.97687E-02
-1.26356E-01	-1.95353E-01	3.39280E+00	1.65023E-01
-1.13037E-01	-1.05741E-01	3.40102E+00	2.41835E-01
-4.15314E-02	-9.84662E-04	3.40959E+00	3.20290E-01
3.91281E-02	6.88207E-02	3.41856E+00	4.00463E-01
8.18059E-02	7.12075E-02	3.42795E+00	4.82423E-01
6.29746E-02	7.83982E-03	3.43781E+00	5.66234E-01
-9.09569E-03	-8.50881E-02	3.44816E+00	6.51968E-01
-1.01603E-01	-1.53751E-01	3.45900E+00	7.39709E-01
-1.74372E-01	-1.53241E-01	3.47038E+00	8.29552E-01
