jMRUI Data Textfile
 
Filename: GABA.txt
 
PointsInDataset: 2048
DatasetsInFile: 1
SamplingInterval: 5.00000E-01
ZeroOrderPhase: 0E0
BeginTime: 0E0
TransmitterFrequency: 1.27740E+08
MagneticField: 0E0
TypeOfNucleus: 0E0
NameOfPatient: 
DateOfExperiment: 
Spectrometer: Vespa-Simulation
AdditionalInfo: see 'readme' file for Vespa-Simulation output synopsis
 
  
Signal and FFT 
sig(real)	sig(imag)	fft(real)	fft(imag)
Signal 1 out of 1 in file
1.58517E+00	-5.54456E-01	3.38932E-01	-2.11173E+00
5.47620E-01	-1.44313E+00	3.40365E-01	-2.10372E+00
-6.67216E-01	-1.19297E+00	3.41789E-01	-2.09577E+00
-1.13981E+00	-2.16553E-01	3.43202E-01	-2.08789E+00
-7.23812E-01	5.91968E-01	3.44601E-01	-2.08007E+00
-8.16917E-03	7.02908E-01	3.45990E-01	-2.07230E+00
3.61005E-01	3.08291E-01	3.47374E-01	-2.06457E+00
2.55808E-01	-4.63200E-02	3.48758E-01	-2.05690E+00
2.55952E-02	-6.20588E-02	3.50143E-01	-2.04928E+00
1.52245E-02	1.00548E-01	3.51530E-01	-2.04172E+00
2.08552E-01	1.14156E-01	3.52916E-01	-2.03422E+00
3.21222E-01	-1.19364E-01	3.54297E-01	-2.02678E+00
1.54002E-01	-3.87826E-01	3.55671E-01	-2.01940E+00
-1.99405E-01	-4.19616E-01	3.57036E-01	-2.01207E+00
-4.64275E-01	-1.54388E-01	3.58394E-01	-2.00479E+00
-4.43392E-01	2.24797E-01	3.59749E-01	-1.99756E+00
-1.58464E-01	4.68195E-01	3.61100E-01	-1.99038E+00
2.05883E-01	4.40633E-01	3.62449E-01	-1.98325E+00
4.44106E-01	1.75174E-01	3.63791E-01	-1.97618E+00
4.34833E-01	-1.76354E-01	3.65127E-01	-1.96916E+00
1.85119E-01	-4.22565E-01	3.66456E-01	-1.96218E+00
-1.66657E-01	-4.19670E-01	3.67779E-01	-1.95525E+00
-4.06032E-01	-1.61903E-01	3.69098E-01	-1.94837E+00
-3.72716E-01	1.84007E-01	3.70415E-01	-1.94153E+00
-9.46325E-02	3.73997E-01	3.71731E-01	-1.93474E+00
2.09061E-01	2.77419E-01	3.73043E-01	-1.92800E+00
3.01695E-01	-1.21871E-03	3.74349E-01	-1.92131E+00
1.39811E-01	-2.09050E-01	3.75646E-01	-1.91467E+00
-8.96473E-02	-1.80295E-01	3.76934E-01	-1.90807E+00
-1.58508E-01	9.18558E-03	3.78216E-01	-1.90151E+00
-2.70256E-02	1.32210E-01	3.79494E-01	-1.89498E+00
1.26314E-01	5.56039E-02	3.80771E-01	-1.88850E+00
1.07838E-01	-1.19807E-01	3.82049E-01	-1.88206E+00
-7.45092E-02	-1.75928E-01	3.83327E-01	-1.87567E+00
-2.17529E-01	-2.38383E-02	3.84601E-01	-1.86932E+00
-1.46643E-01	1.90396E-01	3.85867E-01	-1.86302E+00
8.70748E-02	2.38465E-01	3.87125E-01	-1.85676E+00
2.53022E-01	5.64967E-02	3.88375E-01	-1.85054E+00
1.82213E-01	-1.81538E-01	3.89621E-01	-1.84436E+00
-5.52612E-02	-2.42892E-01	3.90865E-01	-1.83821E+00
-2.24319E-01	-7.54148E-02	3.92110E-01	-1.83210E+00
-1.67740E-01	1.45078E-01	3.93351E-01	-1.82604E+00
4.00342E-02	2.02318E-01	3.94585E-01	-1.82002E+00
1.82468E-01	5.80304E-02	3.95807E-01	-1.81404E+00
1.27974E-01	-1.24172E-01	3.97017E-01	-1.80810E+00
-4.66334E-02	-1.60277E-01	3.98219E-01	-1.80218E+00
-1.53635E-01	-3.17609E-02	3.99419E-01	-1.79629E+00
-9.43002E-02	1.13392E-01	4.00626E-01	-1.79042E+00
5.17581E-02	1.27954E-01	4.01843E-01	-1.78460E+00
1.27378E-01	1.38111E-02	4.03067E-01	-1.77881E+00
6.59925E-02	-9.75903E-02	4.04291E-01	-1.77308E+00
-5.17535E-02	-9.42801E-02	4.05507E-01	-1.76740E+00
-9.80818E-02	4.51068E-03	4.06711E-01	-1.76176E+00
-3.45532E-02	8.38650E-02	4.07895E-01	-1.75616E+00
5.88903E-02	6.25504E-02	4.09056E-01	-1.75060E+00
7.95776E-02	-2.69647E-02	4.10196E-01	-1.74506E+00
1.03907E-02	-8.38585E-02	4.11326E-01	-1.73952E+00
-7.09398E-02	-4.91240E-02	4.12460E-01	-1.73400E+00
-7.95287E-02	3.82458E-02	4.13606E-01	-1.72850E+00
-8.90208E-03	8.90211E-02	4.14769E-01	-1.72302E+00
6.98622E-02	5.57267E-02	4.15948E-01	-1.71759E+00
8.36867E-02	-2.61967E-02	4.17140E-01	-1.71220E+00
2.55005E-02	-8.04977E-02	4.18333E-01	-1.70687E+00
-4.77502E-02	-6.39323E-02	4.19513E-01	-1.70159E+00
-7.40560E-02	7.20402E-04	4.20669E-01	-1.69635E+00
-3.97394E-02	5.46729E-02	4.21801E-01	-1.69115E+00
1.79811E-02	5.80322E-02	4.22912E-01	-1.68596E+00
5.07749E-02	1.80594E-02	4.24009E-01	-1.68079E+00
3.92781E-02	-2.63181E-02	4.25100E-01	-1.67564E+00
1.65519E-03	-4.10963E-02	4.26195E-01	-1.67050E+00
-2.81726E-02	-2.17216E-02	4.27301E-01	-1.66538E+00
-2.91434E-02	9.60870E-03	4.28415E-01	-1.66029E+00
-6.49401E-03	2.56929E-02	4.29535E-01	-1.65523E+00
1.64762E-02	1.61162E-02	4.30654E-01	-1.65021E+00
1.93750E-02	-6.40064E-03	4.31766E-01	-1.64523E+00
1.92370E-03	-1.86564E-02	4.32870E-01	-1.64028E+00
-1.63447E-02	-8.46777E-03	4.33967E-01	-1.63536E+00
-1.46645E-02	1.31408E-02	4.35059E-01	-1.63046E+00
7.55191E-03	2.14624E-02	4.36148E-01	-1.62559E+00
2.73365E-02	2.98010E-03	4.37234E-01	-1.62075E+00
1.93364E-02	-2.76045E-02	4.38316E-01	-1.61593E+00
-1.64339E-02	-3.76710E-02	4.39391E-01	-1.61114E+00
-4.86675E-02	-8.48022E-03	4.40459E-01	-1.60638E+00
-4.11399E-02	4.12971E-02	4.41520E-01	-1.60165E+00
1.04424E-02	6.66127E-02	4.42575E-01	-1.59693E+00
6.73422E-02	3.61484E-02	4.43627E-01	-1.59224E+00
7.76394E-02	-3.43980E-02	4.44678E-01	-1.58756E+00
2.32787E-02	-8.95220E-02	4.45728E-01	-1.58292E+00
-5.87485E-02	-7.94331E-02	4.46777E-01	-1.57829E+00
-1.03337E-01	-5.06848E-03	4.47824E-01	-1.57369E+00
-7.15247E-02	7.84599E-02	4.48870E-01	-1.56912E+00
1.47752E-02	1.05605E-01	4.49912E-01	-1.56457E+00
8.89862E-02	5.50044E-02	4.50953E-01	-1.56005E+00
9.46064E-02	-3.21317E-02	4.51991E-01	-1.55555E+00
3.21308E-02	-8.66400E-02	4.53027E-01	-1.55107E+00
-4.27240E-02	-7.00610E-02	4.54058E-01	-1.54663E+00
-6.87345E-02	-6.33843E-03	4.55083E-01	-1.54221E+00
-3.34575E-02	4.22019E-02	4.56100E-01	-1.53781E+00
1.74798E-02	3.41217E-02	4.57109E-01	-1.53343E+00
2.66042E-02	-1.12038E-02	4.58111E-01	-1.52908E+00
-1.56524E-02	-3.31078E-02	4.59109E-01	-1.52473E+00
-5.69188E-02	6.26724E-03	4.60107E-01	-1.52041E+00
-3.42167E-02	7.50814E-02	4.61108E-01	-1.51610E+00
5.48752E-02	9.43246E-02	4.62110E-01	-1.51182E+00
1.34386E-01	1.67620E-02	4.63110E-01	-1.50756E+00
1.14006E-01	-1.12418E-01	4.64109E-01	-1.50333E+00
-1.83020E-02	-1.81066E-01	4.65103E-01	-1.49912E+00
-1.67029E-01	-1.09952E-01	4.66092E-01	-1.49493E+00
-2.03392E-01	6.35298E-02	4.67074E-01	-1.49077E+00
-8.27500E-02	2.04399E-01	4.68050E-01	-1.48662E+00
1.05926E-01	1.94723E-01	4.69024E-01	-1.48249E+00
2.12340E-01	4.06938E-02	4.69996E-01	-1.47838E+00
1.56708E-01	-1.30713E-01	4.70965E-01	-1.47429E+00
-2.15562E-03	-1.85502E-01	4.71932E-01	-1.47022E+00
-1.26610E-01	-9.96464E-02	4.72897E-01	-1.46617E+00
-1.28127E-01	3.07956E-02	4.73859E-01	-1.46214E+00
-3.92717E-02	9.05646E-02	4.74815E-01	-1.45813E+00
3.50198E-02	5.32015E-02	4.75767E-01	-1.45414E+00
2.95397E-02	-8.95435E-03	4.76717E-01	-1.45017E+00
-2.20203E-02	-1.36814E-02	4.77665E-01	-1.44621E+00
-3.57320E-02	4.17159E-02	4.78609E-01	-1.44228E+00
2.47641E-02	8.24205E-02	4.79553E-01	-1.43836E+00
1.06285E-01	4.12840E-02	4.80494E-01	-1.43446E+00
1.20547E-01	-6.59029E-02	4.81431E-01	-1.43058E+00
3.44462E-02	-1.51692E-01	4.82362E-01	-1.42672E+00
-9.57450E-02	-1.38633E-01	4.83290E-01	-1.42287E+00
-1.74454E-01	-2.77114E-02	4.84217E-01	-1.41904E+00
-1.46009E-01	1.06941E-01	4.85142E-01	-1.41523E+00
-3.05441E-02	1.80281E-01	4.86062E-01	-1.41144E+00
1.01682E-01	1.53065E-01	4.86982E-01	-1.40766E+00
1.79708E-01	4.42184E-02	4.87899E-01	-1.40391E+00
1.64675E-01	-8.97926E-02	4.88811E-01	-1.40017E+00
6.09379E-02	-1.81214E-01	4.89720E-01	-1.39644E+00
-8.25991E-02	-1.76641E-01	4.90627E-01	-1.39273E+00
-1.85349E-01	-6.81079E-02	4.91534E-01	-1.38904E+00
-1.77180E-01	8.57256E-02	4.92438E-01	-1.38536E+00
-5.57042E-02	1.83158E-01	4.93341E-01	-1.38170E+00
9.45043E-02	1.53227E-01	4.94243E-01	-1.37806E+00
1.60160E-01	2.32081E-02	4.95140E-01	-1.37444E+00
9.85677E-02	-9.48599E-02	4.96031E-01	-1.37084E+00
-1.78070E-02	-1.04375E-01	4.96915E-01	-1.36725E+00
-6.96865E-02	-1.97220E-02	4.97793E-01	-1.36368E+00
-1.45561E-02	4.71994E-02	4.98668E-01	-1.36011E+00
6.39384E-02	8.19920E-03	4.99540E-01	-1.35656E+00
4.50270E-02	-9.56590E-02	5.00415E-01	-1.35302E+00
-8.63782E-02	-1.26600E-01	5.01293E-01	-1.34949E+00
-2.00412E-01	-1.55390E-03	5.02174E-01	-1.34598E+00
-1.46555E-01	1.94894E-01	5.03055E-01	-1.34250E+00
7.62357E-02	2.70575E-01	5.03933E-01	-1.33903E+00
2.87666E-01	1.16231E-01	5.04803E-01	-1.33558E+00
2.85448E-01	-1.65211E-01	5.05665E-01	-1.33216E+00
4.68646E-02	-3.35504E-01	5.06516E-01	-1.32874E+00
-2.34109E-01	-2.41901E-01	5.07360E-01	-1.32533E+00
-3.21618E-01	3.48898E-02	5.08202E-01	-1.32193E+00
-1.56530E-01	2.55920E-01	5.09044E-01	-1.31854E+00
9.71088E-02	2.48998E-01	5.09889E-01	-1.31515E+00
2.19021E-01	5.96290E-02	5.10737E-01	-1.31178E+00
1.39811E-01	-1.15559E-01	5.11590E-01	-1.30843E+00
-1.68272E-02	-1.32308E-01	5.12444E-01	-1.30509E+00
-8.34922E-02	-2.67504E-02	5.13296E-01	-1.30178E+00
-2.16459E-02	5.18166E-02	5.14144E-01	-1.29848E+00
5.99238E-02	1.39792E-02	5.14986E-01	-1.29520E+00
4.29981E-02	-8.07662E-02	5.15821E-01	-1.29194E+00
-6.62938E-02	-1.03860E-01	5.16648E-01	-1.28869E+00
-1.49340E-01	-6.11440E-03	5.17469E-01	-1.28545E+00
-1.07692E-01	1.28829E-01	5.18284E-01	-1.28222E+00
3.33780E-02	1.74646E-01	5.19098E-01	-1.27900E+00
1.55376E-01	8.95710E-02	5.19911E-01	-1.27578E+00
1.65370E-01	-5.25829E-02	5.20723E-01	-1.27258E+00
7.30152E-02	-1.44817E-01	5.21536E-01	-1.26939E+00
-4.14448E-02	-1.42117E-01	5.22350E-01	-1.26621E+00
-1.11862E-01	-7.51233E-02	5.23164E-01	-1.26304E+00
-1.26254E-01	6.56683E-03	5.23978E-01	-1.25989E+00
-9.85170E-02	7.85961E-02	5.24793E-01	-1.25675E+00
-3.31094E-02	1.29165E-01	5.25607E-01	-1.25363E+00
6.30386E-02	1.30756E-01	5.26420E-01	-1.25052E+00
1.46991E-01	5.63580E-02	5.27228E-01	-1.24743E+00
1.51270E-01	-7.01906E-02	5.28032E-01	-1.24436E+00
5.06117E-02	-1.63156E-01	5.28828E-01	-1.24129E+00
-8.98330E-02	-1.42226E-01	5.29617E-01	-1.23824E+00
-1.57291E-01	-1.84348E-02	5.30398E-01	-1.23520E+00
-9.80982E-02	1.01902E-01	5.31174E-01	-1.23217E+00
2.33918E-02	1.16126E-01	5.31948E-01	-1.22913E+00
8.67989E-02	2.93235E-02	5.32726E-01	-1.22611E+00
4.11145E-02	-5.17188E-02	5.33509E-01	-1.22309E+00
-4.15786E-02	-3.55512E-02	5.34298E-01	-1.22008E+00
-4.79093E-02	5.08184E-02	5.35091E-01	-1.21710E+00
4.48374E-02	8.96441E-02	5.35881E-01	-1.21413E+00
1.33729E-01	6.80097E-03	5.36664E-01	-1.21118E+00
9.82901E-02	-1.33410E-01	5.37437E-01	-1.20825E+00
-6.05150E-02	-1.83286E-01	5.38201E-01	-1.20532E+00
