jMRUI Data Textfile
 
Filename: Glc.txt
 
PointsInDataset: 2048
DatasetsInFile: 1
SamplingInterval: 5.00000E-01
ZeroOrderPhase: 0E0
BeginTime: 0E0
TransmitterFrequency: 1.27740E+08
MagneticField: 0E0
TypeOfNucleus: 0E0
NameOfPatient: 
DateOfExperiment: 
Spectrometer: Vespa-Simulation
AdditionalInfo: see 'readme' file for Vespa-Simulation output synopsis
 
  
Signal and FFT 
sig(real)	sig(imag)	fft(real)	fft(imag)
Signal 1 out of 1 in file
5.00163E+00	-1.21188E-01	1.57280E+01	-1.48037E+01
4.38505E+00	-2.11462E+00	1.43800E+01	-1.60242E+01
2.94999E+00	-3.56877E+00	1.30521E+01	-1.67548E+01
1.06298E+00	-4.18128E+00	1.18337E+01	-1.71377E+01
-8.21881E-01	-3.86785E+00	1.07548E+01	-1.72836E+01
-2.28074E+00	-2.77011E+00	9.81589E+00	-1.72723E+01
-3.02270E+00	-1.20530E+00	9.00473E+00	-1.71590E+01
-2.95148E+00	4.25259E-01	8.30504E+00	-1.69804E+01
-2.17285E+00	1.74203E+00	7.70097E+00	-1.67611E+01
-9.50265E-01	2.47876E+00	7.17859E+00	-1.65176E+01
3.75550E-01	2.53707E+00	6.72581E+00	-1.62615E+01
1.47886E+00	1.99325E+00	6.33199E+00	-1.60010E+01
2.12808E+00	1.06008E+00	5.98773E+00	-1.57416E+01
2.23259E+00	1.80489E-02	5.68495E+00	-1.54867E+01
1.84852E+00	-8.63051E-01	5.41690E+00	-1.52382E+01
1.14644E+00	-1.39083E+00	5.17794E+00	-1.49971E+01
3.53589E-01	-1.48937E+00	4.96340E+00	-1.47635E+01
-3.11457E-01	-1.20372E+00	4.76957E+00	-1.45371E+01
-6.93999E-01	-6.72854E-01	4.59362E+00	-1.43172E+01
-7.35245E-01	-8.16604E-02	4.43358E+00	-1.41032E+01
-4.75694E-01	3.92976E-01	4.28814E+00	-1.38944E+01
-3.26003E-02	6.27591E-01	4.15646E+00	-1.36906E+01
4.39687E-01	5.78447E-01	4.03782E+00	-1.34921E+01
7.94335E-01	2.84366E-01	3.93151E+00	-1.32993E+01
9.29770E-01	-1.51815E-01	3.83667E+00	-1.31130E+01
8.11951E-01	-5.96044E-01	3.75197E+00	-1.29339E+01
4.77424E-01	-9.20394E-01	3.67554E+00	-1.27627E+01
1.85402E-02	-1.03533E+00	3.60535E+00	-1.25990E+01
-4.43726E-01	-9.09678E-01	3.53980E+00	-1.24418E+01
-7.91656E-01	-5.74809E-01	3.47799E+00	-1.22898E+01
-9.39503E-01	-1.13509E-01	3.41978E+00	-1.21415E+01
-8.52642E-01	3.62474E-01	3.36584E+00	-1.19962E+01
-5.53670E-01	7.40296E-01	3.31701E+00	-1.18539E+01
-1.14974E-01	9.32583E-01	3.27354E+00	-1.17156E+01
3.59783E-01	8.96961E-01	3.23482E+00	-1.15820E+01
7.60395E-01	6.44520E-01	3.19986E+00	-1.14534E+01
9.95619E-01	2.35935E-01	3.16777E+00	-1.13298E+01
1.01354E+00	-2.33505E-01	3.13790E+00	-1.12106E+01
8.12632E-01	-6.56262E-01	3.10986E+00	-1.10954E+01
4.41190E-01	-9.37388E-01	3.08339E+00	-1.09839E+01
-1.45543E-02	-1.01594E+00	3.05833E+00	-1.08756E+01
-4.50938E-01	-8.78451E-01	3.03458E+00	-1.07704E+01
-7.71003E-01	-5.61190E-01	3.01205E+00	-1.06681E+01
-9.06965E-01	-1.40822E-01	2.99067E+00	-1.05684E+01
-8.35421E-01	2.84250E-01	2.97036E+00	-1.04712E+01
-5.81934E-01	6.17599E-01	2.95108E+00	-1.03764E+01
-2.13808E-01	7.87524E-01	2.93276E+00	-1.02838E+01
1.77145E-01	7.63611E-01	2.91535E+00	-1.01934E+01
4.97446E-01	5.62801E-01	2.89880E+00	-1.01050E+01
6.74693E-01	2.43772E-01	2.88305E+00	-1.00185E+01
6.74603E-01	-1.08964E-01	2.86806E+00	-9.93400E+00
5.07967E-01	-4.06896E-01	2.85379E+00	-9.85126E+00
2.26073E-01	-5.79790E-01	2.84020E+00	-9.77026E+00
-9.39871E-02	-5.92450E-01	2.82724E+00	-9.69092E+00
-3.70126E-01	-4.51979E-01	2.81487E+00	-9.61319E+00
-5.36432E-01	-2.03796E-01	2.80308E+00	-9.53700E+00
-5.59320E-01	8.21401E-02	2.79181E+00	-9.46231E+00
-4.44424E-01	3.30835E-01	2.78105E+00	-9.38905E+00
-2.32859E-01	4.82257E-01	2.77076E+00	-9.31717E+00
1.17695E-02	5.06299E-01	2.76091E+00	-9.24664E+00
2.21669E-01	4.09024E-01	2.75149E+00	-9.17740E+00
3.43423E-01	2.28850E-01	2.74247E+00	-9.10940E+00
3.51626E-01	2.41884E-02	2.73383E+00	-9.04262E+00
2.54257E-01	-1.43779E-01	2.72555E+00	-8.97700E+00
8.85971E-02	-2.28157E-01	2.71760E+00	-8.91252E+00
-9.06801E-02	-2.08688E-01	2.70998E+00	-8.84913E+00
-2.27716E-01	-9.61408E-02	2.70267E+00	-8.78681E+00
-2.81212E-01	7.20633E-02	2.69564E+00	-8.72552E+00
-2.35564E-01	2.43428E-01	2.68889E+00	-8.66523E+00
-1.04427E-01	3.65684E-01	2.68240E+00	-8.60590E+00
7.39557E-02	4.01512E-01	2.67616E+00	-8.54752E+00
2.47958E-01	3.38618E-01	2.67016E+00	-8.49005E+00
3.67168E-01	1.92734E-01	2.66438E+00	-8.43347E+00
3.96249E-01	2.84545E-03	2.65882E+00	-8.37775E+00
3.24317E-01	-1.79632E-01	2.65347E+00	-8.32288E+00
1.67632E-01	-3.04801E-01	2.64831E+00	-8.26882E+00
-3.49764E-02	-3.37448E-01	2.64334E+00	-8.21555E+00
-2.32504E-01	-2.66061E-01	2.63856E+00	-8.16307E+00
-3.74956E-01	-1.05476E-01	2.63394E+00	-8.11134E+00
-4.26011E-01	1.07257E-01	2.62949E+00	-8.06035E+00
-3.71818E-01	3.22508E-01	2.62518E+00	-8.01008E+00
-2.23870E-01	4.90592E-01	2.62102E+00	-7.96051E+00
-1.55652E-02	5.73759E-01	2.61699E+00	-7.91161E+00
2.06515E-01	5.54919E-01	2.61309E+00	-7.86338E+00
3.94220E-01	4.40888E-01	2.60932E+00	-7.81578E+00
5.09137E-01	2.59743E-01	2.60569E+00	-7.76880E+00
5.31137E-01	5.31935E-02	2.60218E+00	-7.72244E+00
4.61989E-01	-1.33872E-01	2.59879E+00	-7.67669E+00
3.23539E-01	-2.64020E-01	2.59551E+00	-7.63153E+00
1.51253E-01	-3.15310E-01	2.59235E+00	-7.58695E+00
-1.50385E-02	-2.85193E-01	2.58927E+00	-7.54294E+00
-1.40715E-01	-1.89430E-01	2.58629E+00	-7.49949E+00
-2.03946E-01	-5.67213E-02	2.58339E+00	-7.45656E+00
-1.99466E-01	7.92799E-02	2.58057E+00	-7.41416E+00
-1.38077E-01	1.88432E-01	2.57784E+00	-7.37226E+00
-4.22147E-02	2.50902E-01	2.57520E+00	-7.33086E+00
6.08464E-02	2.60699E-01	2.57263E+00	-7.28995E+00
1.46316E-01	2.25421E-01	2.57015E+00	-7.24952E+00
1.97770E-01	1.62594E-01	2.56774E+00	-7.20955E+00
2.10261E-01	9.38474E-02	2.56540E+00	-7.17005E+00
1.90066E-01	3.87219E-02	2.56314E+00	-7.13099E+00
1.51536E-01	9.67687E-03	2.56095E+00	-7.09238E+00
1.12116E-01	9.56244E-03	2.55883E+00	-7.05421E+00
8.70597E-02	3.19515E-02	2.55677E+00	-7.01647E+00
8.52883E-02	6.40067E-02	2.55477E+00	-6.97916E+00
1.07399E-01	9.08149E-02	2.55281E+00	-6.94226E+00
1.46173E-01	9.99073E-02	2.55090E+00	-6.90575E+00
1.89193E-01	8.47307E-02	2.54903E+00	-6.86964E+00
2.22690E-01	4.61974E-02	2.54721E+00	-6.83390E+00
2.35476E-01	-7.90009E-03	2.54544E+00	-6.79854E+00
2.21895E-01	-6.53076E-02	2.54372E+00	-6.76353E+00
1.83114E-01	-1.12676E-01	2.54206E+00	-6.72888E+00
1.26575E-01	-1.39026E-01	2.54044E+00	-6.69459E+00
6.39250E-02	-1.38337E-01	2.53888E+00	-6.66065E+00
8.06000E-03	-1.10762E-01	2.53737E+00	-6.62706E+00
-2.98525E-02	-6.22653E-02	2.53591E+00	-6.59381E+00
-4.27409E-02	-2.99928E-03	2.53448E+00	-6.56092E+00
-2.88726E-02	5.51176E-02	2.53308E+00	-6.52836E+00
8.15286E-03	1.00957E-01	2.53171E+00	-6.49612E+00
6.04930E-02	1.26344E-01	2.53035E+00	-6.46419E+00
1.17889E-01	1.27436E-01	2.52903E+00	-6.43256E+00
1.69804E-01	1.05124E-01	2.52774E+00	-6.40123E+00
2.07391E-01	6.45509E-02	2.52648E+00	-6.37018E+00
2.25049E-01	1.38697E-02	2.52527E+00	-6.33943E+00
2.21268E-01	-3.74508E-02	2.52410E+00	-6.30896E+00
1.98707E-01	-8.05097E-02	2.52296E+00	-6.27879E+00
1.63500E-01	-1.08649E-01	2.52185E+00	-6.24890E+00
1.23900E-01	-1.18742E-01	2.52077E+00	-6.21929E+00
8.84837E-02	-1.11756E-01	2.51970E+00	-6.18996E+00
6.42514E-02	-9.24712E-02	2.51867E+00	-6.16089E+00
5.49770E-02	-6.83452E-02	2.51765E+00	-6.13208E+00
6.02885E-02	-4.76584E-02	2.51666E+00	-6.10352E+00
7.56743E-02	-3.73734E-02	2.51570E+00	-6.07522E+00
9.36017E-02	-4.11694E-02	2.51476E+00	-6.04718E+00
1.05540E-01	-5.82212E-02	2.51383E+00	-6.01938E+00
1.04445E-01	-8.31418E-02	2.51293E+00	-5.99182E+00
8.70441E-02	-1.07242E-01	2.51205E+00	-5.96450E+00
5.52557E-02	-1.20892E-01	2.51118E+00	-5.93741E+00
1.61697E-02	-1.16436E-01	2.51034E+00	-5.91054E+00
-1.94660E-02	-9.07999E-02	2.50952E+00	-5.88390E+00
-4.00937E-02	-4.70646E-02	2.50872E+00	-5.85748E+00
-3.67296E-02	5.66150E-03	2.50795E+00	-5.83129E+00
-5.96244E-03	5.41656E-02	2.50721E+00	-5.80531E+00
4.83719E-02	8.44701E-02	2.50648E+00	-5.77956E+00
1.15455E-01	8.57338E-02	2.50577E+00	-5.75403E+00
1.79814E-01	5.35860E-02	2.50506E+00	-5.72871E+00
2.25109E-01	-8.06435E-03	2.50438E+00	-5.70359E+00
2.38506E-01	-8.74498E-02	2.50370E+00	-5.67868E+00
2.14315E-01	-1.67567E-01	2.50304E+00	-5.65396E+00
1.55852E-01	-2.30384E-01	2.50239E+00	-5.62944E+00
7.49130E-02	-2.61502E-01	2.50175E+00	-5.60512E+00
-1.10603E-02	-2.53970E-01	2.50113E+00	-5.58098E+00
-8.34694E-02	-2.10150E-01	2.50052E+00	-5.55703E+00
-1.27259E-01	-1.41073E-01	2.49993E+00	-5.53326E+00
-1.34778E-01	-6.34727E-02	2.49935E+00	-5.50967E+00
-1.07513E-01	4.69241E-03	2.49880E+00	-5.48626E+00
-5.53244E-02	4.89368E-02	2.49827E+00	-5.46303E+00
6.58357E-03	6.18365E-02	2.49775E+00	-5.43999E+00
6.20195E-02	4.45230E-02	2.49725E+00	-5.41714E+00
9.82115E-02	5.73276E-03	2.49675E+00	-5.39446E+00
1.08995E-01	-4.12433E-02	2.49626E+00	-5.37196E+00
9.58951E-02	-8.26590E-02	2.49576E+00	-5.34963E+00
6.69298E-02	-1.08290E-01	2.49526E+00	-5.32746E+00
3.35834E-02	-1.14058E-01	2.49477E+00	-5.30543E+00
6.97842E-03	-1.02619E-01	2.49430E+00	-5.28356E+00
-5.55030E-03	-8.18531E-02	2.49384E+00	-5.26185E+00
-2.44749E-03	-6.18407E-02	2.49340E+00	-5.24029E+00
1.20204E-02	-5.13558E-02	2.49297E+00	-5.21888E+00
2.96168E-02	-5.50047E-02	2.49256E+00	-5.19763E+00
4.11381E-02	-7.18659E-02	2.49216E+00	-5.17653E+00
3.96026E-02	-9.59962E-02	2.49178E+00	-5.15559E+00
2.25847E-02	-1.18550E-01	2.49140E+00	-5.13480E+00
-7.00650E-03	-1.30766E-01	2.49104E+00	-5.11416E+00
-4.18766E-02	-1.26841E-01	2.49067E+00	-5.09367E+00
-7.26912E-02	-1.05783E-01	2.49031E+00	-5.07333E+00
-9.09328E-02	-7.17221E-02	2.48995E+00	-5.05312E+00
-9.14844E-02	-3.26333E-02	2.48960E+00	-5.03305E+00
-7.40689E-02	2.05149E-03	2.48925E+00	-5.01311E+00
-4.32037E-02	2.41674E-02	2.48891E+00	-4.99331E+00
-6.76105E-03	2.90369E-02	2.48859E+00	-4.97364E+00
2.63462E-02	1.65602E-02	2.48827E+00	-4.95410E+00
4.86119E-02	-9.06104E-03	2.48796E+00	-4.93469E+00
5.57908E-02	-4.07890E-02	2.48767E+00	-4.91541E+00
4.76709E-02	-7.08357E-02	2.48738E+00	-4.89626E+00
2.76656E-02	-9.27447E-02	2.48711E+00	-4.87724E+00
1.46694E-03	-1.02844E-01	2.48684E+00	-4.85835E+00
-2.47271E-02	-1.00738E-01	2.48657E+00	-4.83960E+00
-4.58398E-02	-8.88448E-02	2.48630E+00	-4.82097E+00
-5.89476E-02	-7.12467E-02	2.48603E+00	-4.80246E+00
-6.35369E-02	-5.23136E-02	2.48576E+00	-4.78406E+00
-6.10116E-02	-3.55746E-02	2.48550E+00	-4.76578E+00
