jMRUI Data Textfile
 
Filename: Gln.txt
 
PointsInDataset: 2048
DatasetsInFile: 1
SamplingInterval: 5.00000E-01
ZeroOrderPhase: 0E0
BeginTime: 0E0
TransmitterFrequency: 1.27740E+08
MagneticField: 0E0
TypeOfNucleus: 0E0
NameOfPatient: 
DateOfExperiment: 
Spectrometer: Vespa-Simulation
AdditionalInfo: see 'readme' file for Vespa-Simulation output synopsis
 
  
Signal and FFT 
sig(real)	sig(imag)	fft(real)	fft(imag)
Signal 1 out of 1 in file
4.03831E+00	-1.86468E-01	2.01751E+00	-1.09151E+00
2.24985E+00	1.36166E-01	2.01643E+00	-1.06702E+00
-1.01990E+00	7.66402E-02	2.01538E+00	-1.04269E+00
-2.86072E+00	-3.56924E-01	2.01437E+00	-1.01853E+00
-1.92850E+00	-6.78036E-01	2.01341E+00	-9.94516E-01
4.78956E-01	-5.79797E-01	2.01249E+00	-9.70660E-01
1.94247E+00	-3.04855E-01	2.01163E+00	-9.46962E-01
1.30263E+00	-2.58485E-01	2.01080E+00	-9.23421E-01
-4.93802E-01	-3.95864E-01	2.01000E+00	-9.00034E-01
-1.66973E+00	-2.31315E-01	2.00924E+00	-8.76791E-01
-1.42589E+00	4.73358E-01	2.00850E+00	-8.53683E-01
-4.17792E-01	1.20957E+00	2.00779E+00	-8.30702E-01
2.92665E-01	1.15011E+00	2.00711E+00	-8.07843E-01
4.00878E-01	1.31149E-01	2.00647E+00	-7.85104E-01
3.80819E-01	-9.64068E-01	2.00586E+00	-7.62484E-01
6.02252E-01	-1.00887E+00	2.00529E+00	-7.39985E-01
7.80784E-01	1.41226E-01	2.00475E+00	-7.17603E-01
4.25839E-01	1.36081E+00	2.00423E+00	-6.95333E-01
-3.62479E-01	1.33241E+00	2.00373E+00	-6.73166E-01
-8.30881E-01	-7.86739E-02	2.00326E+00	-6.51098E-01
-4.02334E-01	-1.61664E+00	2.00282E+00	-6.29122E-01
5.74266E-01	-1.86015E+00	2.00241E+00	-6.07239E-01
1.09015E+00	-6.26403E-01	2.00203E+00	-5.85450E-01
5.30057E-01	8.90032E-01	2.00167E+00	-5.63757E-01
-6.44199E-01	1.34688E+00	2.00134E+00	-5.42157E-01
-1.34847E+00	5.40771E-01	2.00103E+00	-5.20642E-01
-9.79378E-01	-5.42558E-01	2.00074E+00	-4.99205E-01
2.19594E-02	-8.44274E-01	2.00046E+00	-4.77841E-01
7.05476E-01	-2.57572E-01	2.00021E+00	-4.56548E-01
5.99918E-01	4.61235E-01	1.99998E+00	-4.35325E-01
7.81175E-02	6.32684E-01	1.99977E+00	-4.14170E-01
-2.02176E-01	3.20560E-01	1.99958E+00	-3.93081E-01
-5.09926E-02	5.58920E-02	1.99941E+00	-3.72053E-01
1.62908E-01	9.00351E-02	1.99926E+00	-3.51083E-01
8.86165E-02	1.28303E-01	1.99913E+00	-3.30169E-01
-1.34860E-01	-1.77083E-01	1.99901E+00	-3.09307E-01
-9.28871E-02	-6.54125E-01	1.99892E+00	-2.88495E-01
3.00933E-01	-7.27136E-01	1.99885E+00	-2.67731E-01
5.98483E-01	-1.26553E-01	1.99880E+00	-2.47017E-01
3.13189E-01	6.68168E-01	1.99876E+00	-2.26351E-01
-4.46482E-01	8.49698E-01	1.99874E+00	-2.05730E-01
-9.83336E-01	1.60303E-01	1.99873E+00	-1.85145E-01
-7.18897E-01	-7.58012E-01	1.99873E+00	-1.64592E-01
1.59152E-01	-9.80598E-01	1.99875E+00	-1.44065E-01
8.42640E-01	-2.54533E-01	1.99878E+00	-1.23565E-01
7.12231E-01	7.31964E-01	1.99884E+00	-1.03094E-01
-4.80988E-02	1.05453E+00	1.99892E+00	-8.26530E-02
-6.72764E-01	4.76325E-01	1.99902E+00	-6.22412E-02
-6.05874E-01	-3.74146E-01	1.99912E+00	-4.18549E-02
-1.12272E-02	-7.05559E-01	1.99924E+00	-2.14886E-02
4.91520E-01	-3.51243E-01	1.99937E+00	-1.13632E-03
5.01730E-01	1.75454E-01	1.99951E+00	1.92063E-02
1.71852E-01	3.24610E-01	1.99966E+00	3.95413E-02
-9.02772E-02	8.04425E-02	1.99983E+00	5.98687E-02
-1.17317E-01	-1.43171E-01	2.00003E+00	8.01880E-02
-8.70114E-02	-7.00167E-02	2.00023E+00	1.00500E-01
-1.80957E-01	1.19551E-01	2.00046E+00	1.20805E-01
-2.87989E-01	7.33275E-02	2.00069E+00	1.41108E-01
-1.50189E-01	-2.33591E-01	2.00094E+00	1.61411E-01
2.37408E-01	-4.20559E-01	2.00120E+00	1.81721E-01
5.09581E-01	-1.57023E-01	2.00147E+00	2.02039E-01
3.05195E-01	3.90410E-01	2.00176E+00	2.22365E-01
-2.73528E-01	6.73703E-01	2.00207E+00	2.42698E-01
-6.80749E-01	3.48513E-01	2.00239E+00	2.63038E-01
-4.70087E-01	-3.19750E-01	2.00272E+00	2.83386E-01
2.08929E-01	-6.97628E-01	2.00307E+00	3.03748E-01
7.22361E-01	-4.28003E-01	2.00341E+00	3.24127E-01
5.83843E-01	2.11335E-01	2.00377E+00	3.44531E-01
-5.48202E-02	6.07084E-01	2.00413E+00	3.64962E-01
-5.71617E-01	4.29714E-01	2.00451E+00	3.85425E-01
-5.11960E-01	-8.18928E-02	2.00490E+00	4.05920E-01
-1.73338E-02	-4.26933E-01	2.00531E+00	4.26449E-01
3.81555E-01	-3.59261E-01	2.00573E+00	4.47011E-01
3.39476E-01	-6.10641E-02	2.00618E+00	4.67606E-01
7.82830E-03	1.44453E-01	2.00664E+00	4.88233E-01
-2.10971E-01	1.51911E-01	2.00711E+00	5.08895E-01
-1.33621E-01	1.01608E-01	2.00759E+00	5.29594E-01
4.87359E-02	1.14505E-01	2.00809E+00	5.50335E-01
6.24995E-02	1.13992E-01	2.00859E+00	5.71121E-01
-9.61959E-02	-3.64244E-02	2.00911E+00	5.91954E-01
-1.73307E-01	-2.78037E-01	2.00963E+00	6.12837E-01
8.08758E-04	-3.48125E-01	2.01017E+00	6.33772E-01
2.68948E-01	-7.72265E-02	2.01071E+00	6.54765E-01
3.09063E-01	3.51080E-01	2.01126E+00	6.75823E-01
1.82612E-02	5.23289E-01	2.01183E+00	6.96948E-01
-3.35077E-01	2.18914E-01	2.01242E+00	7.18140E-01
-3.83522E-01	-3.19846E-01	2.01304E+00	7.39396E-01
-6.10437E-02	-5.93251E-01	2.01367E+00	7.60713E-01
3.16441E-01	-3.36943E-01	2.01433E+00	7.82088E-01
3.82192E-01	2.08598E-01	2.01499E+00	8.03524E-01
9.66588E-02	5.36878E-01	2.01566E+00	8.25027E-01
-2.34064E-01	3.72653E-01	2.01633E+00	8.46604E-01
-2.98966E-01	-8.39786E-02	2.01701E+00	8.68261E-01
-9.42462E-02	-3.94297E-01	2.01770E+00	8.90002E-01
1.21658E-01	-3.20808E-01	2.01839E+00	9.11835E-01
1.42428E-01	-1.25539E-02	2.01909E+00	9.33765E-01
2.29568E-02	2.11507E-01	2.01981E+00	9.55800E-01
-3.73968E-02	1.99381E-01	2.02055E+00	9.77938E-01
3.49293E-02	6.10298E-02	2.02132E+00	1.00017E+00
1.02242E-01	-2.61557E-02	2.02211E+00	1.02250E+00
1.17856E-02	-2.87278E-02	2.02293E+00	1.04492E+00
-1.78726E-01	-4.21195E-02	2.02377E+00	1.06743E+00
-2.37899E-01	-1.10672E-01	2.02461E+00	1.09005E+00
-3.50799E-02	-1.40844E-01	2.02546E+00	1.11276E+00
2.68980E-01	-2.77490E-02	2.02633E+00	1.13560E+00
3.59088E-01	1.70912E-01	2.02720E+00	1.15855E+00
1.02590E-01	2.53779E-01	2.02810E+00	1.18162E+00
-2.82964E-01	9.57624E-02	2.02901E+00	1.20481E+00
-4.30510E-01	-1.81944E-01	2.02993E+00	1.22813E+00
-1.92428E-01	-3.08824E-01	2.03087E+00	1.25157E+00
2.08833E-01	-1.45489E-01	2.03182E+00	1.27515E+00
4.04150E-01	1.57515E-01	2.03278E+00	1.29887E+00
2.37590E-01	3.06930E-01	2.03377E+00	1.32274E+00
-1.04673E-01	1.68419E-01	2.03478E+00	1.34675E+00
-3.05248E-01	-1.01535E-01	2.03581E+00	1.37090E+00
-2.23666E-01	-2.31435E-01	2.03687E+00	1.39520E+00
1.06001E-02	-1.20169E-01	2.03795E+00	1.41965E+00
1.74632E-01	7.72606E-02	2.03904E+00	1.44425E+00
1.73779E-01	1.41616E-01	2.04015E+00	1.46901E+00
8.03331E-02	3.08371E-02	2.04128E+00	1.49393E+00
-1.90940E-03	-9.65418E-02	2.04243E+00	1.51903E+00
-5.34834E-02	-8.40975E-02	2.04360E+00	1.54429E+00
-1.07537E-01	3.95201E-02	2.04479E+00	1.56973E+00
-1.48688E-01	1.06472E-01	2.04600E+00	1.59535E+00
-1.03352E-01	2.03510E-02	2.04723E+00	1.62116E+00
5.16791E-02	-1.21796E-01	2.04848E+00	1.64716E+00
2.08042E-01	-1.40448E-01	2.04975E+00	1.67336E+00
2.04323E-01	1.23433E-02	2.05105E+00	1.69976E+00
3.49744E-03	1.86155E-01	2.05237E+00	1.72636E+00
-2.32170E-01	1.93471E-01	2.05373E+00	1.75318E+00
-2.78072E-01	1.82803E-02	2.05511E+00	1.78020E+00
-7.16219E-02	-1.63147E-01	2.05652E+00	1.80744E+00
2.11749E-01	-1.72028E-01	2.05796E+00	1.83490E+00
3.20397E-01	-1.55996E-02	2.05942E+00	1.86258E+00
1.65943E-01	1.30928E-01	2.06090E+00	1.89050E+00
-1.01090E-01	1.20304E-01	2.06241E+00	1.91866E+00
-2.47413E-01	-1.50698E-02	2.06395E+00	1.94707E+00
-1.75850E-01	-1.17177E-01	2.06553E+00	1.97574E+00
1.01978E-02	-8.72751E-02	2.06714E+00	2.00466E+00
1.36558E-01	1.31583E-02	2.06878E+00	2.03383E+00
1.24922E-01	5.22836E-02	2.07045E+00	2.06327E+00
3.00003E-02	-7.97329E-03	2.07215E+00	2.09298E+00
-5.54435E-02	-6.95457E-02	2.07388E+00	2.12298E+00
-9.42681E-02	-2.45180E-02	2.07563E+00	2.15328E+00
-9.99535E-02	1.02872E-01	2.07743E+00	2.18388E+00
-7.52655E-02	1.70526E-01	2.07928E+00	2.21479E+00
4.25422E-04	7.92397E-02	2.08117E+00	2.24601E+00
1.14358E-01	-1.02081E-01	2.08311E+00	2.27753E+00
1.84982E-01	-1.94560E-01	2.08508E+00	2.30938E+00
1.25533E-01	-9.56063E-02	2.08709E+00	2.34155E+00
-4.61414E-02	1.06273E-01	2.08913E+00	2.37406E+00
-1.87896E-01	2.13752E-01	2.09121E+00	2.40693E+00
-1.57689E-01	1.16336E-01	2.09334E+00	2.44016E+00
3.25518E-02	-1.01687E-01	2.09552E+00	2.47377E+00
2.05875E-01	-2.45892E-01	2.09775E+00	2.50775E+00
1.85770E-01	-1.95954E-01	2.10003E+00	2.54212E+00
-2.22480E-02	-6.07502E-03	2.10236E+00	2.57688E+00
-2.25932E-01	1.62166E-01	2.10475E+00	2.61205E+00
-2.33536E-01	1.89612E-01	2.10720E+00	2.64763E+00
-4.44195E-02	8.53082E-02	2.10970E+00	2.68363E+00
1.53826E-01	-5.04310E-02	2.11225E+00	2.72007E+00
1.77613E-01	-1.21594E-01	2.11485E+00	2.75695E+00
2.83876E-02	-9.61540E-02	2.11751E+00	2.79430E+00
-1.22080E-01	-1.97406E-03	2.12023E+00	2.83213E+00
-1.17622E-01	1.03605E-01	2.12301E+00	2.87046E+00
2.54260E-02	1.57136E-01	2.12588E+00	2.90929E+00
1.49511E-01	1.12776E-01	2.12882E+00	2.94864E+00
1.29571E-01	-2.21328E-02	2.13185E+00	2.98850E+00
-1.49855E-03	-1.67681E-01	2.13495E+00	3.02889E+00
-1.01734E-01	-2.12602E-01	2.13812E+00	3.06983E+00
-7.77155E-02	-1.06795E-01	2.14137E+00	3.11133E+00
2.33348E-02	7.66087E-02	2.14469E+00	3.15342E+00
7.76100E-02	1.87250E-01	2.14809E+00	3.19612E+00
2.32962E-02	1.28729E-01	2.15158E+00	3.23945E+00
-7.91060E-02	-4.59210E-02	2.15517E+00	3.28341E+00
-1.20887E-01	-1.75873E-01	2.15885E+00	3.32804E+00
-6.24563E-02	-1.40726E-01	2.16264E+00	3.37334E+00
3.33390E-02	2.69358E-02	2.16653E+00	3.41933E+00
7.71597E-02	1.75886E-01	2.17054E+00	3.46604E+00
4.58244E-02	1.81855E-01	2.17465E+00	3.51348E+00
-6.79409E-03	5.82511E-02	2.17888E+00	3.56168E+00
-1.96111E-02	-7.29131E-02	2.18324E+00	3.61066E+00
1.14997E-02	-1.08485E-01	2.18772E+00	3.66044E+00
4.23751E-02	-5.40017E-02	2.19234E+00	3.71105E+00
3.95291E-02	7.33115E-03	2.19709E+00	3.76250E+00
1.48881E-02	1.57332E-02	2.20197E+00	3.81484E+00
7.86271E-04	-1.10671E-02	2.20700E+00	3.86809E+00
4.38707E-03	-2.07546E-02	2.21218E+00	3.92228E+00
7.14953E-04	-1.34709E-03	2.21752E+00	3.97745E+00
-2.94221E-02	6.84737E-03	2.22303E+00	4.03362E+00
-6.72777E-02	-2.66038E-02	2.22872E+00	4.09084E+00
-7.25439E-02	-6.86266E-02	2.23460E+00	4.14912E+00
-3.04730E-02	-5.16376E-02	2.24068E+00	4.20850E+00
