jMRUI Data Textfile
 
Filename: Glu.txt
 
PointsInDataset: 2048
DatasetsInFile: 1
SamplingInterval: 5.00000E-01
ZeroOrderPhase: 0E0
BeginTime: 0E0
TransmitterFrequency: 1.27740E+08
MagneticField: 0E0
TypeOfNucleus: 0E0
NameOfPatient: 
DateOfExperiment: 
Spectrometer: Vespa-Simulation
AdditionalInfo: see 'readme' file for Vespa-Simulation output synopsis
 
  
Signal and FFT 
sig(real)	sig(imag)	fft(real)	fft(imag)
Signal 1 out of 1 in file
2.70711E+00	-2.47222E-01	1.27883E+00	-3.61307E+00
1.46431E+00	-2.08391E+00	1.27766E+00	-3.59350E+00
-6.27158E-01	-2.14480E+00	1.27652E+00	-3.57417E+00
-1.75312E+00	-5.90742E-01	1.27543E+00	-3.55507E+00
-1.09977E+00	1.02223E+00	1.27437E+00	-3.53619E+00
4.88714E-01	1.23578E+00	1.27335E+00	-3.51752E+00
1.39752E+00	-4.86931E-03	1.27236E+00	-3.49907E+00
7.62912E-01	-1.40954E+00	1.27141E+00	-3.48083E+00
-8.00608E-01	-1.61415E+00	1.27048E+00	-3.46279E+00
-1.86429E+00	-4.17847E-01	1.26959E+00	-3.44496E+00
-1.52405E+00	1.12718E+00	1.26873E+00	-3.42731E+00
-1.51157E-01	1.74952E+00	1.26790E+00	-3.40987E+00
1.05733E+00	1.08304E+00	1.26709E+00	-3.39261E+00
1.20132E+00	-1.25379E-01	1.26631E+00	-3.37553E+00
4.04702E-01	-8.01486E-01	1.26556E+00	-3.35864E+00
-4.41963E-01	-5.07771E-01	1.26483E+00	-3.34192E+00
-5.64862E-01	2.81682E-01	1.26414E+00	-3.32537E+00
4.44193E-02	7.36018E-01	1.26346E+00	-3.30900E+00
7.43406E-01	4.43216E-01	1.26282E+00	-3.29280E+00
8.94796E-01	-3.01237E-01	1.26219E+00	-3.27677E+00
4.06654E-01	-8.59093E-01	1.26159E+00	-3.26089E+00
-2.85030E-01	-8.38046E-01	1.26101E+00	-3.24518E+00
-6.69802E-01	-3.61595E-01	1.26044E+00	-3.22963E+00
-5.80776E-01	1.40940E-01	1.25990E+00	-3.21423E+00
-2.37240E-01	3.41627E-01	1.25938E+00	-3.19897E+00
3.11195E-02	2.34294E-01	1.25888E+00	-3.18387E+00
6.74500E-02	3.82536E-02	1.25840E+00	-3.16892E+00
-5.32665E-02	-4.30521E-02	1.25793E+00	-3.15411E+00
-1.63708E-01	3.26132E-02	1.25749E+00	-3.13944E+00
-1.59360E-01	1.77466E-01	1.25705E+00	-3.12491E+00
-4.17028E-02	2.84269E-01	1.25664E+00	-3.11052E+00
1.29347E-01	2.93644E-01	1.25624E+00	-3.09625E+00
2.84474E-01	1.94275E-01	1.25586E+00	-3.08212E+00
3.58591E-01	1.00499E-02	1.25550E+00	-3.06813E+00
3.03215E-01	-1.94232E-01	1.25515E+00	-3.05426E+00
1.24489E-01	-3.20304E-01	1.25481E+00	-3.04052E+00
-8.95082E-02	-2.92548E-01	1.25449E+00	-3.02690E+00
-2.09461E-01	-1.30610E-01	1.25418E+00	-3.01340E+00
-1.65625E-01	4.23449E-02	1.25388E+00	-3.00002E+00
-1.94706E-02	9.09205E-02	1.25360E+00	-2.98676E+00
7.76180E-02	-1.12747E-02	1.25333E+00	-2.97362E+00
1.80063E-02	-1.48426E-01	1.25308E+00	-2.96059E+00
-1.56836E-01	-1.62626E-01	1.25284E+00	-2.94767E+00
-2.85614E-01	-2.31782E-03	1.25260E+00	-2.93487E+00
-2.32486E-01	2.21333E-01	1.25238E+00	-2.92218E+00
-1.51187E-02	3.28749E-01	1.25216E+00	-2.90959E+00
2.06025E-01	2.32344E-01	1.25196E+00	-2.89710E+00
2.68743E-01	1.42076E-02	1.25177E+00	-2.88472E+00
1.49492E-01	-1.49874E-01	1.25159E+00	-2.87244E+00
-2.47083E-02	-1.46712E-01	1.25142E+00	-2.86026E+00
-9.80226E-02	-1.76454E-02	1.25127E+00	-2.84819E+00
-2.38148E-02	9.26841E-02	1.25112E+00	-2.83622E+00
1.05770E-01	7.43494E-02	1.25098E+00	-2.82434E+00
1.55927E-01	-5.36545E-02	1.25085E+00	-2.81256E+00
7.35239E-02	-1.72862E-01	1.25072E+00	-2.80088E+00
-7.37860E-02	-1.79560E-01	1.25061E+00	-2.78929E+00
-1.68774E-01	-7.32203E-02	1.25049E+00	-2.77778E+00
-1.50007E-01	5.55812E-02	1.25039E+00	-2.76637E+00
-5.46157E-02	1.13743E-01	1.25029E+00	-2.75504E+00
2.95677E-02	8.22597E-02	1.25020E+00	-2.74380E+00
4.61747E-02	1.63632E-02	1.25012E+00	-2.73265E+00
9.36543E-03	-1.73062E-02	1.25006E+00	-2.72158E+00
-2.59117E-02	4.44596E-04	1.25000E+00	-2.71059E+00
-2.20234E-02	3.73428E-02	1.24994E+00	-2.69969E+00
1.28015E-02	5.19307E-02	1.24990E+00	-2.68888E+00
4.44072E-02	3.31781E-02	1.24986E+00	-2.67815E+00
5.09580E-02	1.49764E-03	1.24982E+00	-2.66749E+00
3.85402E-02	-2.00607E-02	1.24978E+00	-2.65692E+00
2.45403E-02	-2.82992E-02	1.24975E+00	-2.64641E+00
1.43104E-02	-3.40744E-02	1.24973E+00	-2.63598E+00
-9.27759E-04	-4.10604E-02	1.24971E+00	-2.62562E+00
-2.54680E-02	-3.78140E-02	1.24971E+00	-2.61534E+00
-4.55070E-02	-1.35247E-02	1.24972E+00	-2.60514E+00
-4.01142E-02	2.20313E-02	1.24974E+00	-2.59501E+00
-6.68445E-03	4.07953E-02	1.24976E+00	-2.58496E+00
2.87128E-02	2.32263E-02	1.24977E+00	-2.57498E+00
3.21764E-02	-1.74684E-02	1.24979E+00	-2.56508E+00
-3.59041E-03	-4.21856E-02	1.24981E+00	-2.55524E+00
-4.68457E-02	-2.19431E-02	1.24984E+00	-2.54546E+00
-5.31737E-02	3.07974E-02	1.24987E+00	-2.53575E+00
-8.56886E-03	6.88073E-02	1.24991E+00	-2.52610E+00
5.27005E-02	5.25685E-02	1.24996E+00	-2.51653E+00
7.60122E-02	-1.02266E-02	1.25000E+00	-2.50701E+00
3.68091E-02	-6.73783E-02	1.25006E+00	-2.49757E+00
-3.37666E-02	-6.78342E-02	1.25011E+00	-2.48818E+00
-7.42673E-02	-9.29342E-03	1.25017E+00	-2.47886E+00
-4.80735E-02	5.72750E-02	1.25024E+00	-2.46959E+00
2.22398E-02	7.23357E-02	1.25031E+00	-2.46039E+00
7.39702E-02	2.16942E-02	1.25039E+00	-2.45125E+00
6.03693E-02	-4.99331E-02	1.25047E+00	-2.44217E+00
-7.08361E-03	-7.86631E-02	1.25055E+00	-2.43316E+00
-6.87723E-02	-3.86771E-02	1.25064E+00	-2.42420E+00
-7.02103E-02	3.48010E-02	1.25072E+00	-2.41530E+00
-1.03395E-02	7.71049E-02	1.25081E+00	-2.40646E+00
5.80624E-02	5.14393E-02	1.25090E+00	-2.39767E+00
7.53653E-02	-1.92863E-02	1.25100E+00	-2.38894E+00
2.70651E-02	-7.34270E-02	1.25110E+00	-2.38026E+00
-4.46185E-02	-6.46602E-02	1.25120E+00	-2.37164E+00
-7.83108E-02	-1.36461E-03	1.25131E+00	-2.36307E+00
-4.62977E-02	6.19603E-02	1.25141E+00	-2.35455E+00
2.29363E-02	7.21528E-02	1.25152E+00	-2.34609E+00
7.03372E-02	2.21846E-02	1.25164E+00	-2.33767E+00
5.67649E-02	-4.42448E-02	1.25175E+00	-2.32931E+00
-4.74204E-03	-7.06872E-02	1.25187E+00	-2.32100E+00
-6.10974E-02	-3.54716E-02	1.25199E+00	-2.31274E+00
-6.43268E-02	3.08142E-02	1.25212E+00	-2.30453E+00
-1.16358E-02	7.16138E-02	1.25225E+00	-2.29637E+00
5.25664E-02	5.19201E-02	1.25238E+00	-2.28826E+00
7.39112E-02	-1.23945E-02	1.25251E+00	-2.28020E+00
3.36495E-02	-6.76261E-02	1.25264E+00	-2.27219E+00
-3.52042E-02	-6.69995E-02	1.25278E+00	-2.26422E+00
-7.49037E-02	-1.02104E-02	1.25291E+00	-2.25629E+00
-5.13674E-02	5.54029E-02	1.25305E+00	-2.24842E+00
1.62992E-02	7.40171E-02	1.25319E+00	-2.24059E+00
7.07607E-02	2.88195E-02	1.25334E+00	-2.23280E+00
6.46381E-02	-4.24200E-02	1.25348E+00	-2.22506E+00
1.81596E-03	-7.83154E-02	1.25362E+00	-2.21737E+00
-6.42331E-02	-4.65068E-02	1.25377E+00	-2.20971E+00
-7.54909E-02	2.69850E-02	1.25392E+00	-2.20210E+00
-2.02936E-02	7.84838E-02	1.25407E+00	-2.19453E+00
5.45737E-02	6.15109E-02	1.25423E+00	-2.18700E+00
8.31136E-02	-1.13040E-02	1.25439E+00	-2.17952E+00
3.80688E-02	-7.71487E-02	1.25455E+00	-2.17208E+00
-4.33038E-02	-7.70950E-02	1.25472E+00	-2.16468E+00
-9.01424E-02	-8.79999E-03	1.25488E+00	-2.15732E+00
-6.00987E-02	6.95475E-02	1.25504E+00	-2.15001E+00
2.20489E-02	8.93806E-02	1.25520E+00	-2.14273E+00
8.48462E-02	3.27225E-02	1.25537E+00	-2.13549E+00
7.30710E-02	-5.07086E-02	1.25553E+00	-2.12829E+00
-2.55124E-03	-8.68723E-02	1.25570E+00	-2.12113E+00
-7.40711E-02	-4.34861E-02	1.25587E+00	-2.11401E+00
-7.66651E-02	4.04867E-02	1.25604E+00	-2.10692E+00
-6.96811E-03	8.91249E-02	1.25621E+00	-2.09988E+00
7.33812E-02	5.74400E-02	1.25638E+00	-2.09286E+00
9.25747E-02	-2.81424E-02	1.25656E+00	-2.08589E+00
3.26516E-02	-9.32311E-02	1.25673E+00	-2.07895E+00
-5.48117E-02	-8.16471E-02	1.25691E+00	-2.07204E+00
-9.50052E-02	-4.74600E-03	1.25710E+00	-2.06518E+00
-5.60000E-02	6.99265E-02	1.25728E+00	-2.05835E+00
2.45484E-02	7.92555E-02	1.25746E+00	-2.05156E+00
7.46758E-02	1.95139E-02	1.25764E+00	-2.04481E+00
5.22375E-02	-5.27367E-02	1.25782E+00	-2.03808E+00
-1.96355E-02	-7.24746E-02	1.25800E+00	-2.03139E+00
-7.54889E-02	-2.30745E-02	1.25818E+00	-2.02473E+00
-6.59889E-02	5.15174E-02	1.25837E+00	-2.01810E+00
6.54210E-04	8.72986E-02	1.25856E+00	-2.01151E+00
6.86677E-02	5.53110E-02	1.25876E+00	-2.00495E+00
8.40282E-02	-1.63609E-02	1.25895E+00	-1.99844E+00
3.86523E-02	-6.96341E-02	1.25914E+00	-1.99195E+00
-2.67461E-02	-6.58450E-02	1.25932E+00	-1.98550E+00
-5.95985E-02	-1.49838E-02	1.25950E+00	-1.97907E+00
-3.83738E-02	3.68413E-02	1.25968E+00	-1.97266E+00
1.33866E-02	4.72931E-02	1.25987E+00	-1.96629E+00
4.96849E-02	1.07127E-02	1.26007E+00	-1.95994E+00
3.98188E-02	-4.04783E-02	1.26027E+00	-1.95363E+00
-8.96902E-03	-6.35064E-02	1.26047E+00	-1.94735E+00
-5.91525E-02	-3.84445E-02	1.26068E+00	-1.94110E+00
-7.24090E-02	1.77939E-02	1.26089E+00	-1.93489E+00
-3.80502E-02	6.51085E-02	1.26110E+00	-1.92872E+00
1.96495E-02	7.01363E-02	1.26129E+00	-1.92258E+00
5.96297E-02	3.07002E-02	1.26148E+00	-1.91646E+00
5.44570E-02	-2.25696E-02	1.26167E+00	-1.91037E+00
1.11969E-02	-4.90102E-02	1.26185E+00	-1.90430E+00
-3.32894E-02	-2.91928E-02	1.26204E+00	-1.89824E+00
-4.06436E-02	1.88185E-02	1.26224E+00	-1.89222E+00
-2.38208E-03	5.23205E-02	1.26245E+00	-1.88622E+00
5.09502E-02	3.81388E-02	1.26266E+00	-1.88026E+00
7.26765E-02	-1.83289E-02	1.26287E+00	-1.87433E+00
3.86330E-02	-7.43574E-02	1.26308E+00	-1.86843E+00
-3.01039E-02	-8.33392E-02	1.26329E+00	-1.86256E+00
-8.16721E-02	-3.43633E-02	1.26349E+00	-1.85671E+00
-7.55901E-02	3.61171E-02	1.26369E+00	-1.85088E+00
-1.78000E-02	7.28901E-02	1.26390E+00	-1.84508E+00
4.26810E-02	4.84285E-02	1.26410E+00	-1.83931E+00
5.47843E-02	-1.27056E-02	1.26431E+00	-1.83357E+00
9.70478E-03	-5.40823E-02	1.26451E+00	-1.82785E+00
-5.04327E-02	-3.62767E-02	1.26472E+00	-1.82216E+00
-6.85529E-02	2.78031E-02	1.26492E+00	-1.81648E+00
-2.27840E-02	8.27794E-02	1.26512E+00	-1.81084E+00
5.31097E-02	7.83113E-02	1.26533E+00	-1.80521E+00
9.76071E-02	1.32212E-02	1.26553E+00	-1.79961E+00
7.39316E-02	-6.24593E-02	1.26574E+00	-1.79403E+00
1.61542E-03	-8.97181E-02	1.26595E+00	-1.78848E+00
-6.02706E-02	-5.04875E-02	1.26616E+00	-1.78295E+00
-6.35980E-02	1.77670E-02	1.26637E+00	-1.77745E+00
-1.16293E-02	5.50958E-02	1.26658E+00	-1.77197E+00
4.51287E-02	3.07215E-02	1.26680E+00	-1.76651E+00
5.33750E-02	-3.12242E-02	1.26701E+00	-1.76108E+00
3.05441E-03	-7.33973E-02	1.26723E+00	-1.75567E+00
-6.43153E-02	-5.49868E-02	1.26744E+00	-1.75028E+00
-9.13415E-02	1.33326E-02	1.26765E+00	-1.74492E+00
