jMRUI Data Textfile
 
Filename: Gly.txt
 
PointsInDataset: 2048
DatasetsInFile: 1
SamplingInterval: 5.00000E-01
ZeroOrderPhase: 0E0
BeginTime: 0E0
TransmitterFrequency: 1.27740E+08
MagneticField: 0E0
TypeOfNucleus: 0E0
NameOfPatient: 
DateOfExperiment: 
Spectrometer: Vespa-Simulation
AdditionalInfo: see 'readme' file for Vespa-Simulation output synopsis
 
  
Signal and FFT 
sig(real)	sig(imag)	fft(real)	fft(imag)
Signal 1 out of 1 in file
2.00000E+00	-5.55112E-17	1.14946E+00	-4.24386E+00
1.76215E+00	-8.78124E-01	1.14752E+00	-4.21492E+00
1.16704E+00	-1.54739E+00	1.14563E+00	-4.18635E+00
3.48856E-01	-1.87577E+00	1.14378E+00	-4.15814E+00
-5.16212E-01	-1.80587E+00	1.14196E+00	-4.13029E+00
-1.24771E+00	-1.36446E+00	1.14018E+00	-4.10278E+00
-1.69841E+00	-6.54376E-01	1.13843E+00	-4.07563E+00
-1.78374E+00	1.69154E-01	1.13672E+00	-4.04881E+00
-1.49735E+00	9.32213E-01	1.13504E+00	-4.02233E+00
-9.09984E-01	1.47878E+00	1.13338E+00	-3.99616E+00
-1.52491E-01	1.70246E+00	1.13176E+00	-3.97032E+00
6.13128E-01	1.56695E+00	1.13017E+00	-3.94478E+00
1.22820E+00	1.11140E+00	1.12860E+00	-3.91955E+00
1.57011E+00	4.39973E-01	1.12707E+00	-3.89463E+00
1.57657E+00	-3.01728E-01	1.12556E+00	-3.87000E+00
1.25660E+00	-9.58052E-01	1.12408E+00	-3.84565E+00
6.86514E-01	-1.39585E+00	1.12262E+00	-3.82159E+00
-7.99159E-03	-1.53127E+00	1.12120E+00	-3.79781E+00
-6.79356E-01	-1.34566E+00	1.11980E+00	-3.77429E+00
-1.18939E+00	-8.87354E-01	1.11843E+00	-3.75105E+00
-1.43755E+00	-2.59609E-01	1.11709E+00	-3.72808E+00
-1.38058E+00	4.02439E-01	1.11577E+00	-3.70537E+00
-1.03970E+00	9.60740E-01	1.11448E+00	-3.68292E+00
-4.94231E-01	1.30298E+00	1.11321E+00	-3.66073E+00
1.36633E-01	1.36502E+00	1.11197E+00	-3.63878E+00
7.19715E-01	1.14270E+00	1.11074E+00	-3.61709E+00
1.13584E+00	6.90807E-01	1.10953E+00	-3.59563E+00
1.30407E+00	1.09950E-01	1.10834E+00	-3.57442E+00
1.19726E+00	-4.75694E-01	1.10717E+00	-3.55343E+00
8.46026E-01	-9.44790E-01	1.10601E+00	-3.53268E+00
3.30593E-01	-1.20389E+00	1.10486E+00	-3.51216E+00
-2.37305E-01	-1.20587E+00	1.10372E+00	-3.49184E+00
-7.38543E-01	-9.58269E-01	1.10259E+00	-3.47174E+00
-1.07145E+00	-5.20050E-01	1.10148E+00	-3.45183E+00
-1.17236E+00	1.22373E-02	1.10039E+00	-3.43213E+00
-1.02757E+00	5.25516E-01	1.09933E+00	-3.41263E+00
-6.74643E-01	9.14184E-01	1.09829E+00	-3.39333E+00
-1.93022E-01	1.10168E+00	1.09728E+00	-3.37423E+00
3.13631E-01	1.05541E+00	1.09629E+00	-3.35533E+00
7.39731E-01	7.92192E-01	1.09531E+00	-3.33663E+00
9.99579E-01	3.73201E-01	1.09435E+00	-3.31812E+00
1.04456E+00	-1.10066E-01	1.09340E+00	-3.29981E+00
8.72020E-01	-5.55599E-01	1.09247E+00	-3.28168E+00
5.24368E-01	-8.72400E-01	1.09154E+00	-3.26373E+00
7.89773E-02	-9.98881E-01	1.09063E+00	-3.24595E+00
-3.68992E-01	-9.14765E-01	1.08973E+00	-3.22835E+00
-7.26745E-01	-6.43973E-01	1.08885E+00	-3.21092E+00
-9.23061E-01	-2.48309E-01	1.08798E+00	-3.19367E+00
-9.22310E-01	1.86508E-01	1.08713E+00	-3.17658E+00
-7.30741E-01	5.69274E-01	1.08629E+00	-3.15966E+00
-3.93887E-01	8.22418E-01	1.08546E+00	-3.14290E+00
1.40418E-02	8.97555E-01	1.08464E+00	-3.12630E+00
4.06460E-01	7.84647E-01	1.08384E+00	-3.10986E+00
7.02628E-01	5.12878E-01	1.08305E+00	-3.09357E+00
8.44255E-01	1.43382E-01	1.08227E+00	-3.07744E+00
8.06809E-01	-2.44345E-01	1.08151E+00	-3.06147E+00
6.03575E-01	-5.69530E-01	1.08076E+00	-3.04564E+00
2.81742E-01	-7.66805E-01	1.08001E+00	-3.02997E+00
-8.84333E-02	-7.99317E-01	1.07927E+00	-3.01444E+00
-4.28871E-01	-6.65429E-01	1.07854E+00	-2.99905E+00
-6.70031E-01	-3.97998E-01	1.07782E+00	-2.98379E+00
-7.65095E-01	-5.64765E-02	1.07711E+00	-2.96868E+00
-6.98906E-01	2.86159E-01	1.07642E+00	-2.95370E+00
-4.90144E-01	5.58995E-01	1.07573E+00	-2.93885E+00
-1.86417E-01	7.07723E-01	1.07506E+00	-2.92414E+00
1.46473E-01	7.05410E-01	1.07440E+00	-2.90957E+00
4.38776E-01	5.57207E-01	1.07374E+00	-2.89512E+00
6.31246E-01	2.98288E-01	1.07310E+00	-2.88080E+00
6.87143E-01	-1.43465E-02	1.07246E+00	-2.86661E+00
5.99134E-01	-3.14327E-01	1.07183E+00	-2.85254E+00
3.89870E-01	-5.40006E-01	1.07122E+00	-2.83859E+00
1.06405E-01	-6.46965E-01	1.07061E+00	-2.82477E+00
-1.90294E-01	-6.16748E-01	1.07001E+00	-2.81107E+00
-4.38458E-01	-4.59849E-01	1.06942E+00	-2.79749E+00
-5.88219E-01	-2.12648E-01	1.06883E+00	-2.78403E+00
-6.11631E-01	7.09098E-02	1.06824E+00	-2.77069E+00
-5.07767E-01	3.31011E-01	1.06766E+00	-2.75745E+00
-3.02044E-01	5.14590E-01	1.06708E+00	-2.74432E+00
-4.01833E-02	5.86009E-01	1.06651E+00	-2.73129E+00
2.21894E-01	5.33961E-01	1.06595E+00	-2.71838E+00
4.29940E-01	3.73044E-01	1.06540E+00	-2.70557E+00
5.42601E-01	1.39907E-01	1.06486E+00	-2.69287E+00
5.39500E-01	-1.14971E-01	1.06432E+00	-2.68027E+00
4.24869E-01	-3.38164E-01	1.06379E+00	-2.66778E+00
2.25864E-01	-4.84494E-01	1.06326E+00	-2.65537E+00
-1.37229E-02	-5.26044E-01	1.06275E+00	-2.64307E+00
-2.43060E-01	-4.57459E-01	1.06225E+00	-2.63087E+00
-4.15002E-01	-2.96346E-01	1.06176E+00	-2.61877E+00
-4.95763E-01	-7.88889E-02	1.06128E+00	-2.60677E+00
-4.71442E-01	1.48167E-01	1.06079E+00	-2.59488E+00
-3.50320E-01	3.37541E-01	1.06031E+00	-2.58308E+00
-1.60466E-01	4.51209E-01	1.05982E+00	-2.57138E+00
5.67287E-02	4.68004E-01	1.05934E+00	-2.55975E+00
2.55468E-01	3.87438E-01	1.05887E+00	-2.54822E+00
3.95192E-01	2.29205E-01	1.05841E+00	-2.53677E+00
4.48830E-01	2.84302E-02	1.05795E+00	-2.52541E+00
4.07935E-01	-1.72018E-01	1.05750E+00	-2.51414E+00
2.83893E-01	-3.30672E-01	1.05706E+00	-2.50295E+00
1.04955E-01	-4.15992E-01	1.05662E+00	-2.49185E+00
-9.01758E-02	-4.12602E-01	1.05618E+00	-2.48083E+00
-2.60612E-01	-3.23940E-01	1.05575E+00	-2.46989E+00
-3.71850E-01	-1.70988E-01	1.05534E+00	-2.45903E+00
-4.02704E-01	1.26033E-02	1.05493E+00	-2.44825E+00
-3.49278E-01	1.87919E-01	1.05454E+00	-2.43756E+00
-2.25231E-01	3.18927E-01	1.05416E+00	-2.42697E+00
-5.84243E-02	3.79889E-01	1.05377E+00	-2.41646E+00
1.15321E-01	3.60362E-01	1.05337E+00	-2.40603E+00
2.59830E-01	2.66872E-01	1.05297E+00	-2.39568E+00
3.46104E-01	1.21051E-01	1.05257E+00	-2.38539E+00
3.58094E-01	-4.52988E-02	1.05218E+00	-2.37517E+00
2.95618E-01	-1.97139E-01	1.05178E+00	-2.36502E+00
1.73904E-01	-3.03491E-01	1.05140E+00	-2.35495E+00
1.99691E-02	-3.43754E-01	1.05103E+00	-2.34494E+00
-1.33329E-01	-3.11644E-01	1.05065E+00	-2.33501E+00
-2.54306E-01	-2.16041E-01	1.05028E+00	-2.32514E+00
-3.18919E-01	-7.86907E-02	1.04991E+00	-2.31534E+00
-3.15544E-01	7.06863E-02	1.04955E+00	-2.30559E+00
-2.46981E-01	2.00825E-01	1.04921E+00	-2.29591E+00
-1.29433E-01	2.85383E-01	1.04889E+00	-2.28630E+00
1.12628E-02	3.08274E-01	1.04859E+00	-2.27677E+00
1.45269E-01	2.66671E-01	1.04830E+00	-2.26734E+00
2.45080E-01	1.71174E-01	1.04800E+00	-2.25800E+00
2.91090E-01	4.32099E-02	1.04768E+00	-2.24874E+00
2.75444E-01	-8.97373E-02	1.04732E+00	-2.23953E+00
2.03291E-01	-1.99999E-01	1.04695E+00	-2.23037E+00
9.13016E-02	-2.65472E-01	1.04657E+00	-2.22123E+00
-3.61169E-02	-2.73988E-01	1.04621E+00	-2.21213E+00
-1.52121E-01	-2.25546E-01	1.04587E+00	-2.20307E+00
-2.33060E-01	-1.31931E-01	1.04556E+00	-2.19408E+00
-2.63270E-01	-1.39261E-02	1.04527E+00	-2.18515E+00
-2.38074E-01	1.03323E-01	1.04501E+00	-2.17628E+00
-1.64395E-01	1.95566E-01	1.04477E+00	-2.16749E+00
-5.89774E-02	2.44489E-01	1.04454E+00	-2.15880E+00
5.53840E-02	2.41308E-01	1.04430E+00	-2.15019E+00
1.54748E-01	1.88293E-01	1.04402E+00	-2.14166E+00
2.19018E-01	9.79551E-02	1.04372E+00	-2.13318E+00
2.35980E-01	-9.85814E-03	1.04339E+00	-2.12474E+00
2.03594E-01	-1.12286E-01	1.04306E+00	-2.11632E+00
1.30080E-01	-1.88324E-01	1.04274E+00	-2.10793E+00
3.19229E-02	-2.23041E-01	1.04244E+00	-2.09957E+00
-6.98039E-02	-2.10532E-01	1.04217E+00	-2.09127E+00
-1.53940E-01	-1.54846E-01	1.04191E+00	-2.08304E+00
-2.03621E-01	-6.88403E-02	1.04166E+00	-2.07487E+00
-2.09631E-01	2.87500E-02	1.04141E+00	-2.06676E+00
-1.72083E-01	1.17364E-01	1.04116E+00	-2.05870E+00
-1.00087E-01	1.78962E-01	1.04091E+00	-2.05070E+00
-9.60764E-03	2.01624E-01	1.04066E+00	-2.04274E+00
8.00618E-02	1.81864E-01	1.04042E+00	-2.03484E+00
1.50391E-01	1.25083E-01	1.04017E+00	-2.02700E+00
1.87426E-01	4.41757E-02	1.03992E+00	-2.01920E+00
1.84532E-01	-4.33706E-02	1.03967E+00	-2.01145E+00
1.43550E-01	-1.19227E-01	1.03942E+00	-2.00375E+00
7.41296E-02	-1.68076E-01	1.03916E+00	-1.99609E+00
-8.48339E-03	-1.80636E-01	1.03890E+00	-1.98847E+00
-8.67859E-02	-1.55429E-01	1.03865E+00	-1.98089E+00
-1.44709E-01	-9.88392E-02	1.03841E+00	-1.97335E+00
-1.70896E-01	-2.35478E-02	1.03817E+00	-1.96585E+00
-1.60911E-01	5.42877E-02	1.03795E+00	-1.95840E+00
-1.17939E-01	1.18483E-01	1.03773E+00	-1.95100E+00
-5.18992E-02	1.56172E-01	1.03751E+00	-1.94364E+00
2.28432E-02	1.60387E-01	1.03730E+00	-1.93634E+00
9.05472E-02	1.31283E-01	1.03708E+00	-1.92907E+00
1.37421E-01	7.59135E-02	1.03687E+00	-1.92186E+00
1.54409E-01	6.54823E-03	1.03666E+00	-1.91468E+00
1.38921E-01	-6.20267E-02	1.03645E+00	-1.90755E+00
9.51658E-02	-1.15646E-01	1.03624E+00	-1.90047E+00
3.30794E-02	-1.43675E-01	1.03603E+00	-1.89342E+00
-3.39378E-02	-1.41113E-01	1.03582E+00	-1.88642E+00
-9.18597E-02	-1.09430E-01	1.03561E+00	-1.87945E+00
-1.28982E-01	-5.60829E-02	1.03540E+00	-1.87252E+00
-1.38267E-01	7.21883E-03	1.03519E+00	-1.86563E+00
-1.18654E-01	6.70690E-02	1.03498E+00	-1.85878E+00
-7.50951E-02	1.11190E-01	1.03477E+00	-1.85196E+00
-1.73514E-02	1.30938E-01	1.03457E+00	-1.84518E+00
4.22026E-02	1.22984E-01	1.03438E+00	-1.83843E+00
9.11821E-02	8.98283E-02	1.03420E+00	-1.83173E+00
1.19779E-01	3.91103E-02	1.03402E+00	-1.82507E+00
1.22706E-01	-1.81321E-02	1.03383E+00	-1.81845E+00
1.00152E-01	-6.98521E-02	1.03364E+00	-1.81188E+00
5.75715E-02	-1.05518E-01	1.03345E+00	-1.80533E+00
4.39498E-03	-1.18247E-01	1.03326E+00	-1.79881E+00
-4.80407E-02	-1.06117E-01	1.03307E+00	-1.79233E+00
-8.89200E-02	-7.24038E-02	1.03290E+00	-1.78588E+00
-1.10135E-01	-2.47512E-02	1.03272E+00	-1.77948E+00
-1.07905E-01	2.65493E-02	1.03253E+00	-1.77311E+00
-8.34152E-02	7.07694E-02	1.03235E+00	-1.76677E+00
-4.24223E-02	9.89781E-02	1.03217E+00	-1.76047E+00
6.08090E-03	1.05833E-01	1.03199E+00	-1.75419E+00
5.18209E-02	9.05799E-02	1.03182E+00	-1.74794E+00
8.54288E-02	5.70547E-02	1.03165E+00	-1.74172E+00
1.00320E-01	1.27603E-02	1.03149E+00	-1.73555E+00
