jMRUI Data Textfile
 
Filename: GPC.txt
 
PointsInDataset: 2048
DatasetsInFile: 1
SamplingInterval: 5.00000E-01
ZeroOrderPhase: 0E0
BeginTime: 0E0
TransmitterFrequency: 1.27740E+08
MagneticField: 0E0
TypeOfNucleus: 0E0
NameOfPatient: 
DateOfExperiment: 
Spectrometer: Vespa-Simulation
AdditionalInfo: see 'readme' file for Vespa-Simulation output synopsis
 
  
Signal and FFT 
sig(real)	sig(imag)	fft(real)	fft(imag)
Signal 1 out of 1 in file
9.00000E+00	-5.44360E-17	4.90802E+00	-1.46107E+01
7.32651E+00	-4.98169E+00	4.90397E+00	-1.45315E+01
3.20672E+00	-8.11074E+00	4.89999E+00	-1.44530E+01
-1.87901E+00	-8.37759E+00	4.89609E+00	-1.43753E+01
-6.16679E+00	-5.77975E+00	4.89226E+00	-1.42984E+01
-8.21932E+00	-1.29161E+00	4.88848E+00	-1.42222E+01
-7.40592E+00	3.49812E+00	4.88475E+00	-1.41467E+01
-4.09255E+00	6.94700E+00	4.88107E+00	-1.40720E+01
5.13745E-01	7.92056E+00	4.87746E+00	-1.39980E+01
4.80239E+00	6.16343E+00	4.87390E+00	-1.39247E+01
7.32100E+00	2.35915E+00	4.87041E+00	-1.38520E+01
7.26554E+00	-2.13185E+00	4.86697E+00	-1.37801E+01
4.73453E+00	-5.75707E+00	4.86357E+00	-1.37089E+01
6.67516E-01	-7.30724E+00	4.86021E+00	-1.36383E+01
-3.50132E+00	-6.31799E+00	4.85689E+00	-1.35684E+01
-6.34739E+00	-3.20517E+00	4.85360E+00	-1.34991E+01
-6.94126E+00	9.04255E-01	4.85036E+00	-1.34304E+01
-5.15005E+00	4.57824E+00	4.84717E+00	-1.33624E+01
-1.65832E+00	6.57760E+00	4.84404E+00	-1.32949E+01
2.29087E+00	6.27244E+00	4.84096E+00	-1.32281E+01
5.33683E+00	3.83807E+00	4.83793E+00	-1.31619E+01
6.46893E+00	1.70361E-01	4.83494E+00	-1.30963E+01
5.36037E+00	-3.44200E+00	4.83199E+00	-1.30312E+01
2.45842E+00	-5.76906E+00	4.82908E+00	-1.29668E+01
-1.19201E+00	-6.05712E+00	4.82621E+00	-1.29029E+01
-4.32310E+00	-4.27104E+00	4.82339E+00	-1.28395E+01
-5.88336E+00	-1.08393E+00	4.82062E+00	-1.27767E+01
-5.38936E+00	2.37418E+00	4.81790E+00	-1.27145E+01
-3.07308E+00	4.91584E+00	4.81520E+00	-1.26528E+01
2.19317E-01	5.70279E+00	4.81252E+00	-1.25917E+01
3.33515E+00	4.52099E+00	4.80987E+00	-1.25311E+01
5.21746E+00	1.83426E+00	4.80722E+00	-1.24710E+01
5.26260E+00	-1.39482E+00	4.80459E+00	-1.24114E+01
3.51202E+00	-4.04839E+00	4.80198E+00	-1.23523E+01
6.18073E-01	-5.23960E+00	4.79942E+00	-1.22937E+01
-2.39705E+00	-4.60746E+00	4.79691E+00	-1.22355E+01
-4.50164E+00	-2.42394E+00	4.79444E+00	-1.21779E+01
-5.00628E+00	5.18561E-01	4.79201E+00	-1.21207E+01
-3.78838E+00	3.19319E+00	4.78958E+00	-1.20640E+01
-1.31642E+00	4.69640E+00	4.78717E+00	-1.20078E+01
1.52788E+00	4.55181E+00	4.78480E+00	-1.19519E+01
3.76332E+00	2.85969E+00	4.78248E+00	-1.18965E+01
4.64645E+00	2.44900E-01	4.78023E+00	-1.18416E+01
3.91801E+00	-2.37257E+00	4.77803E+00	-1.17871E+01
1.87624E+00	-4.10009E+00	4.77586E+00	-1.17331E+01
-7.42154E-01	-4.37624E+00	4.77369E+00	-1.16796E+01
-3.02647E+00	-3.15172E+00	4.77151E+00	-1.16265E+01
-4.20826E+00	-8.90495E-01	4.76932E+00	-1.15738E+01
-3.91865E+00	1.60447E+00	4.76715E+00	-1.15215E+01
-2.30192E+00	3.47517E+00	4.76502E+00	-1.14695E+01
4.97192E-02	4.10314E+00	4.76294E+00	-1.14180E+01
2.31163E+00	3.31268E+00	4.76089E+00	-1.13668E+01
3.71544E+00	1.41715E+00	4.75887E+00	-1.13161E+01
3.80901E+00	-9.02909E-01	4.75686E+00	-1.12658E+01
2.60094E+00	-2.84340E+00	4.75487E+00	-1.12158E+01
5.43458E-01	-3.75436E+00	4.75290E+00	-1.11662E+01
-1.63574E+00	-3.35706E+00	4.75097E+00	-1.11169E+01
-3.18977E+00	-1.82745E+00	4.74910E+00	-1.10680E+01
-3.60818E+00	2.77937E-01	4.74729E+00	-1.10195E+01
-2.78340E+00	2.22348E+00	4.74552E+00	-1.09714E+01
-1.03513E+00	3.35070E+00	4.74379E+00	-1.09237E+01
1.01206E+00	3.30062E+00	4.74205E+00	-1.08764E+01
2.65082E+00	2.12671E+00	4.74028E+00	-1.08294E+01
3.33509E+00	2.63956E-01	4.73848E+00	-1.07828E+01
2.86105E+00	-1.63119E+00	4.73667E+00	-1.07365E+01
1.42622E+00	-2.91150E+00	4.73488E+00	-1.06905E+01
-4.50578E-01	-3.15956E+00	4.73311E+00	-1.06449E+01
-2.11569E+00	-2.32264E+00	4.73139E+00	-1.05995E+01
-3.00793E+00	-7.19656E-01	4.72969E+00	-1.05545E+01
-2.84699E+00	1.07905E+00	4.72800E+00	-1.05097E+01
-1.72031E+00	2.45429E+00	4.72632E+00	-1.04653E+01
-4.19109E-02	2.95016E+00	4.72465E+00	-1.04212E+01
1.59880E+00	2.42482E+00	4.72303E+00	-1.03773E+01
2.64372E+00	1.08895E+00	4.72149E+00	-1.03337E+01
2.75489E+00	-5.76903E-01	4.72007E+00	-1.02905E+01
1.92329E+00	-1.99453E+00	4.71873E+00	-1.02476E+01
4.61706E-01	-2.68823E+00	4.71744E+00	-1.02051E+01
-1.11215E+00	-2.44393E+00	4.71610E+00	-1.01630E+01
-2.25813E+00	-1.37388E+00	4.71465E+00	-1.01214E+01
-2.59871E+00	1.31528E-01	4.71305E+00	-1.00799E+01
-2.04273E+00	1.54547E+00	4.71134E+00	-1.00387E+01
-8.07427E-01	2.38880E+00	4.70962E+00	-9.99758E+00
6.64975E-01	2.39154E+00	4.70799E+00	-9.95660E+00
1.86506E+00	1.57881E+00	4.70648E+00	-9.91584E+00
2.39217E+00	2.52870E-01	4.70508E+00	-9.87534E+00
2.08732E+00	-1.11828E+00	4.70378E+00	-9.83513E+00
1.08019E+00	-2.06572E+00	4.70259E+00	-9.79520E+00
-2.64039E-01	-2.27953E+00	4.70151E+00	-9.75563E+00
-1.47672E+00	-1.70950E+00	4.70049E+00	-9.71648E+00
-2.14838E+00	-5.74219E-01	4.69941E+00	-9.67774E+00
-2.06674E+00	7.21742E-01	4.69820E+00	-9.63935E+00
-1.28298E+00	1.73150E+00	4.69683E+00	-9.60121E+00
-8.59824E-02	2.11969E+00	4.69534E+00	-9.56321E+00
1.10331E+00	1.77313E+00	4.69383E+00	-9.52531E+00
1.87960E+00	8.32762E-01	4.69238E+00	-9.48753E+00
1.99105E+00	-3.62500E-01	4.69103E+00	-9.44993E+00
1.42017E+00	-1.39719E+00	4.68980E+00	-9.41257E+00
3.82706E-01	-1.92349E+00	4.68864E+00	-9.37549E+00
-7.53110E-01	-1.77768E+00	4.68752E+00	-9.33870E+00
-1.59706E+00	-1.03026E+00	4.68640E+00	-9.30219E+00
-1.87037E+00	4.53345E-02	4.68528E+00	-9.26593E+00
-1.49748E+00	1.07220E+00	4.68415E+00	-9.22990E+00
-6.25583E-01	1.70171E+00	4.68304E+00	-9.19410E+00
4.32683E-01	1.73156E+00	4.68193E+00	-9.15854E+00
1.31069E+00	1.17007E+00	4.68083E+00	-9.12321E+00
1.71463E+00	2.27049E-01	4.67972E+00	-9.08812E+00
1.52148E+00	-7.64264E-01	4.67859E+00	-9.05326E+00
8.15520E-01	-1.46433E+00	4.67744E+00	-9.01860E+00
-1.46669E-01	-1.64345E+00	4.67628E+00	-8.98412E+00
-1.02905E+00	-1.25670E+00	4.67512E+00	-8.94982E+00
-1.53332E+00	-4.53409E-01	4.67398E+00	-8.91568E+00
-1.49918E+00	4.79635E-01	4.67288E+00	-8.88173E+00
-9.54916E-01	1.22028E+00	4.67182E+00	-8.84798E+00
-1.01936E-01	1.52194E+00	4.67081E+00	-8.81444E+00
7.59454E-01	1.29536E+00	4.66982E+00	-8.78112E+00
1.33525E+00	6.34115E-01	4.66884E+00	-8.74802E+00
1.43797E+00	-2.22855E-01	4.66787E+00	-8.71512E+00
1.04723E+00	-9.77371E-01	4.66691E+00	-8.68243E+00
3.11497E-01	-1.37530E+00	4.66596E+00	-8.64994E+00
-5.07690E-01	-1.29199E+00	4.66502E+00	-8.61766E+00
-1.12841E+00	-7.70756E-01	4.66407E+00	-8.58557E+00
-1.34522E+00	-2.82839E-03	4.66312E+00	-8.55367E+00
-1.09665E+00	7.42314E-01	4.66217E+00	-8.52196E+00
-4.81837E-01	1.21130E+00	4.66122E+00	-8.49042E+00
2.78214E-01	1.25278E+00	4.66027E+00	-8.45906E+00
9.19929E-01	8.65831E-01	4.65933E+00	-8.42788E+00
1.22813E+00	1.95626E-01	4.65839E+00	-8.39687E+00
1.10805E+00	-5.20553E-01	4.65745E+00	-8.36602E+00
6.13868E-01	-1.03709E+00	4.65653E+00	-8.33534E+00
-7.42710E-02	-1.18404E+00	4.65562E+00	-8.30481E+00
-7.15859E-01	-9.22761E-01	4.65475E+00	-8.27444E+00
-1.09352E+00	-3.54928E-01	4.65392E+00	-8.24426E+00
-1.08664E+00	3.16362E-01	4.65311E+00	-8.21428E+00
-7.09470E-01	8.59021E-01	4.65228E+00	-8.18451E+00
-1.02054E-01	1.09200E+00	4.65142E+00	-8.15490E+00
5.21373E-01	9.45433E-01	4.65054E+00	-8.12543E+00
9.47747E-01	4.81038E-01	4.64969E+00	-8.09609E+00
1.03779E+00	-1.32955E-01	4.64886E+00	-8.06691E+00
7.71221E-01	-6.82677E-01	4.64806E+00	-8.03790E+00
2.49934E-01	-9.82626E-01	4.64726E+00	-8.00908E+00
-3.40450E-01	-9.38254E-01	4.64644E+00	-7.98041E+00
-7.96493E-01	-5.75339E-01	4.64562E+00	-7.95189E+00
-9.66852E-01	-2.74764E-02	4.64479E+00	-7.92349E+00
-8.02277E-01	5.12811E-01	4.64398E+00	-7.89523E+00
-3.69288E-01	8.61516E-01	4.64320E+00	-7.86710E+00
1.76252E-01	9.05730E-01	4.64246E+00	-7.83913E+00
6.44824E-01	6.39751E-01	4.64174E+00	-7.81132E+00
8.79039E-01	1.63864E-01	4.64103E+00	-7.78367E+00
8.06287E-01	-3.53178E-01	4.64032E+00	-7.75619E+00
4.60866E-01	-7.33806E-01	4.63962E+00	-7.72887E+00
-3.10127E-02	-8.52458E-01	4.63891E+00	-7.70168E+00
-4.97067E-01	-6.76807E-01	4.63820E+00	-7.67464E+00
-7.79269E-01	-2.75816E-01	4.63750E+00	-7.64773E+00
-7.87037E-01	2.06817E-01	4.63682E+00	-7.62096E+00
-5.26210E-01	6.04005E-01	4.63616E+00	-7.59434E+00
-9.40294E-02	7.82963E-01	4.63550E+00	-7.56787E+00
3.56846E-01	6.89421E-01	4.63483E+00	-7.54155E+00
6.72104E-01	3.63700E-01	4.63416E+00	-7.51537E+00
7.48445E-01	-7.59564E-02	4.63348E+00	-7.48932E+00
5.67256E-01	-4.76085E-01	4.63281E+00	-7.46339E+00
1.98250E-01	-7.01550E-01	4.63215E+00	-7.43759E+00
-2.26940E-01	-6.80835E-01	4.63150E+00	-7.41193E+00
-5.61601E-01	-4.28617E-01	4.63086E+00	-7.38641E+00
-6.94424E-01	-3.80555E-02	4.63022E+00	-7.36103E+00
-5.86362E-01	3.53403E-01	4.62956E+00	-7.33580E+00
-2.81711E-01	6.12255E-01	4.62889E+00	-7.31069E+00
1.09536E-01	6.54348E-01	4.62819E+00	-7.28570E+00
4.51367E-01	4.72043E-01	4.62748E+00	-7.26082E+00
6.28724E-01	1.34424E-01	4.62676E+00	-7.23602E+00
5.86222E-01	-2.38588E-01	4.62605E+00	-7.21131E+00
3.45150E-01	-5.18712E-01	4.62537E+00	-7.18671E+00
-6.15056E-03	-6.13308E-01	4.62472E+00	-7.16221E+00
-3.44489E-01	-4.95860E-01	4.62408E+00	-7.13783E+00
-5.54892E-01	-2.13003E-01	4.62347E+00	-7.11356E+00
-5.69614E-01	1.33752E-01	4.62288E+00	-7.08942E+00
-3.89660E-01	4.24178E-01	4.62232E+00	-7.06540E+00
-8.24101E-02	5.60990E-01	4.62176E+00	-7.04151E+00
2.43437E-01	5.02291E-01	4.62122E+00	-7.01776E+00
4.76202E-01	2.74142E-01	4.62068E+00	-6.99414E+00
5.39398E-01	-4.04241E-02	4.62012E+00	-6.97064E+00
4.16722E-01	-3.31479E-01	4.61955E+00	-6.94725E+00
1.55779E-01	-5.00499E-01	4.61897E+00	-6.92394E+00
-1.50227E-01	-4.93660E-01	4.61841E+00	-6.90073E+00
-3.95547E-01	-3.18711E-01	4.61789E+00	-6.87763E+00
-4.98410E-01	-4.05014E-02	4.61739E+00	-6.85466E+00
-4.28151E-01	2.42913E-01	4.61689E+00	-6.83183E+00
-2.14078E-01	4.34737E-01	4.61638E+00	-6.80914E+00
6.63677E-02	4.72396E-01	4.61584E+00	-6.78656E+00
3.15491E-01	3.47836E-01	4.61527E+00	-6.76408E+00
4.49363E-01	1.08524E-01	4.61468E+00	-6.74168E+00
4.25876E-01	-1.60390E-01	4.61407E+00	-6.71936E+00
