jMRUI Data Textfile
 
Filename: GSH.txt
 
PointsInDataset: 2048
DatasetsInFile: 1
SamplingInterval: 5.00000E-01
ZeroOrderPhase: 0E0
BeginTime: 0E0
TransmitterFrequency: 1.27740E+08
MagneticField: 0E0
TypeOfNucleus: 0E0
NameOfPatient: 
DateOfExperiment: 
Spectrometer: Vespa-Simulation
AdditionalInfo: see 'readme' file for Vespa-Simulation output synopsis
 
  
Signal and FFT 
sig(real)	sig(imag)	fft(real)	fft(imag)
Signal 1 out of 1 in file
6.78313E+00	-1.58566E-01	8.25637E+00	-1.69764E+01
5.10400E+00	-2.11129E+00	7.82944E+00	-1.66957E+01
1.70528E+00	-3.30907E+00	7.45389E+00	-1.64111E+01
-1.19434E+00	-3.52545E+00	7.12184E+00	-1.61272E+01
-2.08638E+00	-2.88677E+00	6.82704E+00	-1.58469E+01
-1.17223E+00	-1.76903E+00	6.56442E+00	-1.55720E+01
8.17811E-02	-6.44705E-01	6.32976E+00	-1.53037E+01
3.19714E-01	8.71715E-02	6.11945E+00	-1.50428E+01
-6.23733E-01	2.63870E-01	5.93043E+00	-1.47899E+01
-1.78489E+00	4.81313E-02	5.76006E+00	-1.45450E+01
-2.07060E+00	-1.47568E-01	5.60608E+00	-1.43082E+01
-1.22530E+00	8.15370E-02	5.46652E+00	-1.40795E+01
6.04513E-02	8.28680E-01	5.33970E+00	-1.38587E+01
8.86318E-01	1.75283E+00	5.22415E+00	-1.36454E+01
9.70799E-01	2.27213E+00	5.11860E+00	-1.34395E+01
8.14558E-01	1.96659E+00	5.02195E+00	-1.32407E+01
1.10772E+00	8.89889E-01	4.93325E+00	-1.30485E+01
1.98246E+00	-4.64171E-01	4.85166E+00	-1.28628E+01
2.81667E+00	-1.52034E+00	4.77644E+00	-1.26832E+01
2.76110E+00	-2.01071E+00	4.70696E+00	-1.25095E+01
1.50541E+00	-2.07407E+00	4.64264E+00	-1.23412E+01
-3.98436E-01	-2.00704E+00	4.58300E+00	-1.21783E+01
-1.92992E+00	-1.92255E+00	4.52758E+00	-1.20203E+01
-2.36374E+00	-1.64910E+00	4.47601E+00	-1.18671E+01
-1.76480E+00	-9.66460E-01	4.42793E+00	-1.17184E+01
-8.38214E-01	6.13515E-02	4.38303E+00	-1.15740E+01
-3.12518E-01	1.00683E+00	4.34104E+00	-1.14336E+01
-3.93701E-01	1.37571E+00	4.30172E+00	-1.12972E+01
-7.12472E-01	1.03572E+00	4.26486E+00	-1.11644E+01
-7.38199E-01	3.76894E-01	4.23024E+00	-1.10352E+01
-2.56628E-01	1.88250E-02	4.19769E+00	-1.09093E+01
4.90574E-01	2.87889E-01	4.16703E+00	-1.07866E+01
1.07074E+00	9.16215E-01	4.13813E+00	-1.06670E+01
1.24466E+00	1.24309E+00	4.11083E+00	-1.05504E+01
1.11954E+00	7.67261E-01	4.08504E+00	-1.04365E+01
9.65126E-01	-4.13310E-01	4.06064E+00	-1.03252E+01
9.02495E-01	-1.64991E+00	4.03754E+00	-1.02165E+01
7.75090E-01	-2.23865E+00	4.01566E+00	-1.01102E+01
3.23986E-01	-1.94476E+00	3.99491E+00	-1.00063E+01
-5.03318E-01	-1.12543E+00	3.97520E+00	-9.90465E+00
-1.40912E+00	-3.78198E-01	3.95646E+00	-9.80514E+00
-1.92043E+00	-4.51007E-02	3.93862E+00	-9.70770E+00
-1.74833E+00	-1.13485E-03	3.92163E+00	-9.61223E+00
-1.02757E+00	1.24063E-01	3.90544E+00	-9.51865E+00
-2.26068E-01	5.32254E-01	3.89000E+00	-9.42691E+00
2.07742E-01	1.04461E+00	3.87527E+00	-9.33692E+00
1.71680E-01	1.27542E+00	3.86121E+00	-9.24863E+00
-5.27156E-02	1.01088E+00	3.84778E+00	-9.16197E+00
-7.05437E-02	4.28290E-01	3.83494E+00	-9.07688E+00
2.83983E-01	-5.14675E-02	3.82265E+00	-8.99332E+00
8.17406E-01	-1.40830E-01	3.81090E+00	-8.91123E+00
1.15307E+00	5.73894E-02	3.79963E+00	-8.83057E+00
1.04759E+00	1.51240E-01	3.78881E+00	-8.75128E+00
5.74944E-01	-1.69527E-01	3.77842E+00	-8.67331E+00
3.52369E-02	-8.27007E-01	3.76843E+00	-8.59660E+00
-3.10999E-01	-1.38966E+00	3.75884E+00	-8.52109E+00
-4.39791E-01	-1.42183E+00	3.74964E+00	-8.44676E+00
-5.25981E-01	-8.45480E-01	3.74081E+00	-8.37360E+00
-7.24841E-01	-4.81156E-03	3.73233E+00	-8.30156E+00
-9.87587E-01	6.13585E-01	3.72417E+00	-8.23063E+00
-1.08716E+00	7.57712E-01	3.71628E+00	-8.16076E+00
-8.31415E-01	5.66552E-01	3.70866E+00	-8.09189E+00
-2.65408E-01	3.92187E-01	3.70129E+00	-8.02399E+00
3.29097E-01	4.65220E-01	3.69419E+00	-7.95701E+00
6.46373E-01	7.01946E-01	3.68736E+00	-7.89093E+00
5.98612E-01	8.08948E-01	3.68078E+00	-7.82574E+00
3.74310E-01	5.71495E-01	3.67446E+00	-7.76142E+00
2.61105E-01	5.88210E-02	3.66836E+00	-7.69796E+00
3.89274E-01	-4.32446E-01	3.66247E+00	-7.63534E+00
6.20659E-01	-6.34375E-01	3.65678E+00	-7.57353E+00
6.78174E-01	-5.28143E-01	3.65126E+00	-7.51249E+00
3.98531E-01	-3.35632E-01	3.64592E+00	-7.45220E+00
-1.15844E-01	-3.00227E-01	3.64076E+00	-7.39262E+00
-5.76873E-01	-4.60112E-01	3.63577E+00	-7.33376E+00
-7.47676E-01	-6.16460E-01	3.63095E+00	-7.27558E+00
-6.25776E-01	-5.19655E-01	3.62629E+00	-7.21809E+00
-4.15683E-01	-1.03505E-01	3.62179E+00	-7.16126E+00
-3.25303E-01	4.39934E-01	3.61742E+00	-7.10507E+00
-3.75772E-01	8.07473E-01	3.61318E+00	-7.04951E+00
-3.96206E-01	8.23141E-01	3.60906E+00	-6.99454E+00
-2.02699E-01	5.63423E-01	3.60507E+00	-6.94016E+00
2.07092E-01	2.70678E-01	3.60121E+00	-6.88634E+00
6.24997E-01	1.40386E-01	3.59747E+00	-6.83308E+00
7.98907E-01	1.69647E-01	3.59386E+00	-6.78036E+00
6.46188E-01	1.89784E-01	3.59036E+00	-6.72818E+00
3.22326E-01	4.09524E-02	3.58696E+00	-6.67653E+00
8.29361E-02	-2.72796E-01	3.58366E+00	-6.62537E+00
6.22082E-02	-5.81710E-01	3.58046E+00	-6.57472E+00
1.64970E-01	-6.94933E-01	3.57735E+00	-6.52454E+00
1.67207E-01	-5.58321E-01	3.57433E+00	-6.47482E+00
-6.70941E-02	-2.89170E-01	3.57140E+00	-6.42556E+00
-4.48057E-01	-6.62733E-02	3.56855E+00	-6.37674E+00
-7.25238E-01	2.01197E-02	3.56580E+00	-6.32835E+00
-6.98968E-01	2.64246E-02	3.56312E+00	-6.28039E+00
-3.91300E-01	7.93150E-02	3.56052E+00	-6.23284E+00
-2.65286E-02	2.42732E-01	3.55800E+00	-6.18568E+00
1.59907E-01	4.50927E-01	3.55556E+00	-6.13892E+00
1.15462E-01	5.64655E-01	3.55319E+00	-6.09254E+00
-8.56432E-04	4.94537E-01	3.55089E+00	-6.04654E+00
2.45108E-02	2.78504E-01	3.54866E+00	-6.00090E+00
2.59179E-01	4.60115E-02	3.54651E+00	-5.95562E+00
5.57802E-01	-9.44594E-02	3.54441E+00	-5.91070E+00
6.84316E-01	-1.40755E-01	3.54237E+00	-5.86612E+00
5.13399E-01	-1.79698E-01	3.54038E+00	-5.82188E+00
1.35853E-01	-2.86616E-01	3.53843E+00	-5.77795E+00
-2.18439E-01	-4.37710E-01	3.53655E+00	-5.73432E+00
-3.66726E-01	-5.18727E-01	3.53471E+00	-5.69099E+00
-3.06386E-01	-4.25586E-01	3.53294E+00	-5.64796E+00
-1.88046E-01	-1.67177E-01	3.53124E+00	-5.60522E+00
-1.65362E-01	1.24794E-01	3.52958E+00	-5.56277E+00
-2.60393E-01	2.93693E-01	3.52797E+00	-5.52060E+00
-3.58488E-01	2.82139E-01	3.52640E+00	-5.47870E+00
-3.24994E-01	1.74783E-01	3.52487E+00	-5.43705E+00
-1.30957E-01	1.20077E-01	3.52339E+00	-5.39565E+00
1.23138E-01	1.96736E-01	3.52197E+00	-5.35449E+00
2.97650E-01	3.40749E-01	3.52061E+00	-5.31359E+00
3.29366E-01	3.98657E-01	3.51930E+00	-5.27292E+00
2.69547E-01	2.63393E-01	3.51803E+00	-5.23251E+00
2.19442E-01	-2.46019E-02	3.51678E+00	-5.19232E+00
2.31303E-01	-3.01164E-01	3.51557E+00	-5.15236E+00
2.66240E-01	-4.09816E-01	3.51439E+00	-5.11259E+00
2.40402E-01	-3.28765E-01	3.51324E+00	-5.07303E+00
1.09028E-01	-1.82448E-01	3.51214E+00	-5.03365E+00
-9.06899E-02	-1.25856E-01	3.51109E+00	-4.99447E+00
-2.71119E-01	-2.01968E-01	3.51007E+00	-4.95549E+00
-3.63296E-01	-2.99502E-01	3.50909E+00	-4.91669E+00
-3.58556E-01	-2.52898E-01	3.50814E+00	-4.87808E+00
-2.92682E-01	-5.25048E-04	3.50722E+00	-4.83963E+00
-2.00342E-01	3.38976E-01	3.50632E+00	-4.80134E+00
-9.06052E-02	5.46515E-01	3.50547E+00	-4.76320E+00
3.63388E-02	4.78307E-01	3.50466E+00	-4.72520E+00
1.58783E-01	1.89732E-01	3.50391E+00	-4.68737E+00
2.32376E-01	-1.01926E-01	3.50320E+00	-4.64969E+00
2.26822E-01	-1.90598E-01	3.50252E+00	-4.61217E+00
1.63759E-01	-4.78102E-02	3.50187E+00	-4.57481E+00
1.10499E-01	1.57579E-01	3.50123E+00	-4.53759E+00
1.24811E-01	2.03732E-01	3.50059E+00	-4.50050E+00
1.97113E-01	3.25622E-03	3.49998E+00	-4.46351E+00
2.46684E-01	-3.23174E-01	3.49938E+00	-4.42662E+00
1.83776E-01	-5.46070E-01	3.49883E+00	-4.38983E+00
-1.06378E-02	-5.12375E-01	3.49831E+00	-4.35314E+00
-2.56255E-01	-2.60373E-01	3.49783E+00	-4.31655E+00
-4.24001E-01	2.63939E-02	3.49738E+00	-4.28005E+00
-4.27275E-01	1.76997E-01	3.49695E+00	-4.24365E+00
-2.81291E-01	1.62516E-01	3.49656E+00	-4.20732E+00
-8.52114E-02	9.12154E-02	3.49620E+00	-4.17107E+00
5.42764E-02	8.73980E-02	3.49590E+00	-4.13488E+00
9.50232E-02	1.72397E-01	3.49565E+00	-4.09878E+00
7.35656E-02	2.54288E-01	3.49544E+00	-4.06278E+00
5.93452E-02	2.26900E-01	3.49527E+00	-4.02687E+00
9.33484E-02	7.80931E-02	3.49510E+00	-3.99106E+00
1.60367E-01	-9.58425E-02	3.49492E+00	-3.95532E+00
2.09677E-01	-1.80060E-01	3.49472E+00	-3.91962E+00
1.99282E-01	-1.46764E-01	3.49452E+00	-3.88393E+00
1.26136E-01	-7.59371E-02	3.49434E+00	-3.84824E+00
2.31510E-02	-7.33418E-02	3.49421E+00	-3.81255E+00
-6.77550E-02	-1.65851E-01	3.49414E+00	-3.77688E+00
-1.22980E-01	-2.74056E-01	3.49412E+00	-3.74123E+00
-1.47061E-01	-2.86965E-01	3.49415E+00	-3.70560E+00
-1.62483E-01	-1.66449E-01	3.49423E+00	-3.67000E+00
-1.88846E-01	1.76363E-02	3.49437E+00	-3.63443E+00
-2.24345E-01	1.52652E-01	3.49454E+00	-3.59892E+00
-2.41284E-01	1.83875E-01	3.49472E+00	-3.56345E+00
-2.01172E-01	1.53610E-01	3.49489E+00	-3.52799E+00
-8.43728E-02	1.43872E-01	3.49503E+00	-3.49253E+00
8.38653E-02	1.82930E-01	3.49518E+00	-3.45701E+00
2.33990E-01	2.11522E-01	3.49534E+00	-3.42144E+00
2.88707E-01	1.45249E-01	3.49555E+00	-3.38581E+00
2.16470E-01	-2.71674E-02	3.49581E+00	-3.35014E+00
6.23118E-02	-2.10302E-01	3.49614E+00	-3.31443E+00
-7.50022E-02	-2.74931E-01	3.49651E+00	-3.27870E+00
-1.10995E-01	-1.75885E-01	3.49691E+00	-3.24295E+00
-3.98977E-02	-3.74612E-03	3.49734E+00	-3.20716E+00
5.78518E-02	8.55766E-02	3.49778E+00	-3.17131E+00
7.68723E-02	7.33310E-03	3.49825E+00	-3.13541E+00
-2.82860E-02	-1.70937E-01	3.49875E+00	-3.09943E+00
-2.02994E-01	-2.80587E-01	3.49928E+00	-3.06337E+00
-3.31921E-01	-1.95433E-01	3.49985E+00	-3.02724E+00
-3.27378E-01	5.63857E-02	3.50046E+00	-2.99102E+00
-1.94769E-01	3.10601E-01	3.50109E+00	-2.95473E+00
-2.26195E-02	3.99891E-01	3.50176E+00	-2.91834E+00
9.12333E-02	2.86851E-01	3.50244E+00	-2.88184E+00
1.12860E-01	8.42597E-02	3.50315E+00	-2.84524E+00
8.43708E-02	-4.91255E-02	3.50390E+00	-2.80850E+00
7.14185E-02	-4.16999E-02	3.50468E+00	-2.77163E+00
9.84670E-02	4.41178E-02	3.50551E+00	-2.73462E+00
1.31057E-01	8.44817E-02	3.50638E+00	-2.69748E+00
1.16871E-01	1.31815E-02	3.50730E+00	-2.66020E+00
4.21419E-02	-1.21258E-01	3.50826E+00	-2.62277E+00
-5.18739E-02	-2.06306E-01	3.50926E+00	-2.58518E+00
-1.06815E-01	-1.70702E-01	3.51030E+00	-2.54744E+00
