jMRUI Data Textfile
 
Filename: Lac.txt
 
PointsInDataset: 2048
DatasetsInFile: 1
SamplingInterval: 5.00000E-01
ZeroOrderPhase: 0E0
BeginTime: 0E0
TransmitterFrequency: 1.27740E+08
MagneticField: 0E0
TypeOfNucleus: 0E0
NameOfPatient: 
DateOfExperiment: 
Spectrometer: Vespa-Simulation
AdditionalInfo: see 'readme' file for Vespa-Simulation output synopsis
 
  
Signal and FFT 
sig(real)	sig(imag)	fft(real)	fft(imag)
Signal 1 out of 1 in file
2.14859E+00	5.40018E-02	1.36847E+00	-2.12032E+00
6.66575E-01	-1.85683E+00	1.36254E+00	-2.10520E+00
-1.42752E+00	-8.94636E-01	1.35682E+00	-2.09035E+00
-9.33699E-01	1.23568E+00	1.35130E+00	-2.07576E+00
1.18492E+00	1.15166E+00	1.34597E+00	-2.06141E+00
1.52380E+00	-9.21196E-01	1.34083E+00	-2.04730E+00
-3.96364E-01	-1.70529E+00	1.33586E+00	-2.03342E+00
-1.56295E+00	-7.54316E-02	1.33105E+00	-2.01977E+00
-2.91704E-01	1.34306E+00	1.32641E+00	-2.00634E+00
1.27592E+00	4.18476E-01	1.32192E+00	-1.99313E+00
6.86167E-01	-1.25625E+00	1.31758E+00	-1.98012E+00
-1.05110E+00	-1.03391E+00	1.31338E+00	-1.96733E+00
-1.22290E+00	6.67838E-01	1.30931E+00	-1.95474E+00
3.29537E-01	1.19539E+00	1.30536E+00	-1.94234E+00
1.12945E+00	-1.43703E-01	1.30153E+00	-1.93013E+00
1.79981E-02	-1.15078E+00	1.29781E+00	-1.91810E+00
-1.16353E+00	-2.84854E-01	1.29420E+00	-1.90626E+00
-5.85709E-01	1.02726E+00	1.29069E+00	-1.89458E+00
7.75651E-01	7.67417E-01	1.28728E+00	-1.88306E+00
8.16964E-01	-5.54636E-01	1.28396E+00	-1.87170E+00
-4.09549E-01	-8.51861E-01	1.28074E+00	-1.86048E+00
-9.27197E-01	2.50288E-01	1.27762E+00	-1.84942E+00
1.71462E-02	9.65958E-01	1.27461E+00	-1.83850E+00
8.94187E-01	2.24193E-01	1.27169E+00	-1.82774E+00
3.85609E-01	-7.52757E-01	1.26886E+00	-1.81714E+00
-6.26885E-01	-4.77036E-01	1.26610E+00	-1.80669E+00
-5.66882E-01	5.24815E-01	1.26341E+00	-1.79639E+00
3.90245E-01	6.66590E-01	1.26078E+00	-1.78623E+00
7.20838E-01	-2.07496E-01	1.25821E+00	-1.77620E+00
-2.89076E-02	-7.00036E-01	1.25570E+00	-1.76629E+00
-6.41343E-01	-1.03377E-01	1.25325E+00	-1.75649E+00
-2.08051E-01	5.85814E-01	1.25086E+00	-1.74681E+00
5.22483E-01	3.17150E-01	1.24854E+00	-1.73724E+00
4.18442E-01	-4.21802E-01	1.24628E+00	-1.72778E+00
-2.92827E-01	-4.76749E-01	1.24408E+00	-1.71844E+00
-4.89408E-01	1.72430E-01	1.24193E+00	-1.70922E+00
7.29314E-02	4.85043E-01	1.23984E+00	-1.70010E+00
4.75472E-01	2.49336E-02	1.23780E+00	-1.69109E+00
1.28921E-01	-4.42223E-01	1.23582E+00	-1.68218E+00
-3.74741E-01	-2.16681E-01	1.23388E+00	-1.67337E+00
-2.69260E-01	2.93364E-01	1.23199E+00	-1.66467E+00
2.21033E-01	2.98107E-01	1.23014E+00	-1.65607E+00
3.22594E-01	-1.52936E-01	1.22834E+00	-1.64757E+00
-7.30303E-02	-3.37510E-01	1.22657E+00	-1.63917E+00
-3.23700E-01	-1.22962E-02	1.22483E+00	-1.63085E+00
-7.88902E-02	2.82412E-01	1.22313E+00	-1.62263E+00
2.36889E-01	1.19169E-01	1.22147E+00	-1.61448E+00
1.50173E-01	-1.99449E-01	1.21984E+00	-1.60642E+00
-1.57305E-01	-1.83532E-01	1.21824E+00	-1.59844E+00
-2.06081E-01	9.86414E-02	1.21669E+00	-1.59054E+00
3.63779E-02	2.01233E-01	1.21516E+00	-1.58273E+00
1.76307E-01	7.78568E-03	1.21367E+00	-1.57498E+00
3.30871E-02	-1.52955E-01	1.21221E+00	-1.56732E+00
-1.36620E-01	-5.70855E-02	1.21078E+00	-1.55972E+00
-8.60617E-02	1.12419E-01	1.20939E+00	-1.55220E+00
7.23296E-02	1.04802E-01	1.20803E+00	-1.54476E+00
1.00305E-01	-3.08138E-02	1.20670E+00	-1.53739E+00
-5.63175E-03	-8.19909E-02	1.20540E+00	-1.53010E+00
-6.81380E-02	-5.75208E-03	1.20412E+00	-1.52288E+00
-1.88932E-02	6.05044E-02	1.20286E+00	-1.51574E+00
4.53470E-02	3.69295E-02	1.20162E+00	-1.50865E+00
4.58101E-02	-1.75238E-02	1.20041E+00	-1.50163E+00
9.55234E-03	-3.59486E-02	1.19921E+00	-1.49468E+00
-1.66750E-02	-2.20210E-02	1.19804E+00	-1.48778E+00
-2.34843E-02	2.69111E-03	1.19688E+00	-1.48095E+00
-5.84961E-03	2.66604E-02	1.19575E+00	-1.47417E+00
3.29348E-02	2.02366E-02	1.19464E+00	-1.46745E+00
4.34218E-02	-3.05764E-02	1.19354E+00	-1.46079E+00
-1.29063E-02	-6.37875E-02	1.19247E+00	-1.45417E+00
-7.07669E-02	-1.15470E-02	1.19142E+00	-1.44761E+00
-3.12177E-02	6.81105E-02	1.19040E+00	-1.44111E+00
6.57065E-02	4.67442E-02	1.18940E+00	-1.43467E+00
6.68411E-02	-6.35497E-02	1.18843E+00	-1.42828E+00
-5.20528E-02	-9.23609E-02	1.18746E+00	-1.42195E+00
-1.13044E-01	2.71751E-02	1.18651E+00	-1.41568E+00
-3.01962E-03	1.21137E-01	1.18558E+00	-1.40945E+00
1.20706E-01	2.97382E-02	1.18466E+00	-1.40328E+00
5.47282E-02	-1.19017E-01	1.18375E+00	-1.39717E+00
-1.14063E-01	-8.45127E-02	1.18286E+00	-1.39110E+00
-1.17268E-01	9.76012E-02	1.18197E+00	-1.38508E+00
6.84897E-02	1.43117E-01	1.18110E+00	-1.37910E+00
1.57176E-01	-3.52113E-02	1.18023E+00	-1.37316E+00
-3.68497E-03	-1.64717E-01	1.17938E+00	-1.36726E+00
-1.70342E-01	-3.01166E-02	1.17855E+00	-1.36140E+00
-7.08712E-02	1.68709E-01	1.17774E+00	-1.35558E+00
1.52126E-01	1.12922E-01	1.17694E+00	-1.34981E+00
1.45829E-01	-1.23214E-01	1.17616E+00	-1.34407E+00
-9.18025E-02	-1.68355E-01	1.17540E+00	-1.33838E+00
-1.88134E-01	6.01824E-02	1.17465E+00	-1.33274E+00
2.05243E-02	2.06593E-01	1.17392E+00	-1.32714E+00
2.13386E-01	3.00139E-02	1.17320E+00	-1.32158E+00
8.04527E-02	-2.01001E-01	1.17249E+00	-1.31608E+00
-1.77150E-01	-1.19286E-01	1.17179E+00	-1.31061E+00
-1.50311E-01	1.53679E-01	1.17110E+00	-1.30520E+00
1.27830E-01	1.84609E-01	1.17041E+00	-1.29982E+00
2.19354E-01	-8.64993E-02	1.16972E+00	-1.29448E+00
-2.92638E-02	-2.37607E-01	1.16903E+00	-1.28917E+00
-2.32354E-01	-2.60576E-02	1.16834E+00	-1.28390E+00
-6.71386E-02	2.17964E-01	1.16766E+00	-1.27864E+00
2.08383E-01	1.04579E-01	1.16698E+00	-1.27342E+00
1.53524E-01	-1.94015E-01	1.16633E+00	-1.26822E+00
-1.55401E-01	-2.05435E-01	1.16568E+00	-1.26304E+00
-2.35605E-01	9.56876E-02	1.16506E+00	-1.25789E+00
4.07701E-02	2.38560E-01	1.16445E+00	-1.25278E+00
2.36868E-01	-2.83872E-03	1.16387E+00	-1.24770E+00
3.74476E-02	-2.45974E-01	1.16330E+00	-1.24265E+00
-2.47494E-01	-9.92493E-02	1.16275E+00	-1.23766E+00
-1.66591E-01	2.15279E-01	1.16222E+00	-1.23271E+00
1.57660E-01	2.06533E-01	1.16169E+00	-1.22781E+00
2.16860E-01	-1.09264E-01	1.16115E+00	-1.22296E+00
-8.05013E-02	-2.29519E-01	1.16059E+00	-1.21814E+00
-2.60201E-01	4.16559E-02	1.16000E+00	-1.21335E+00
-2.97292E-02	2.79969E-01	1.15942E+00	-1.20855E+00
2.56485E-01	1.08535E-01	1.15885E+00	-1.20375E+00
1.53955E-01	-2.05106E-01	1.15830E+00	-1.19897E+00
-1.69210E-01	-1.69159E-01	1.15779E+00	-1.19421E+00
-1.96133E-01	1.55231E-01	1.15731E+00	-1.18949E+00
1.21970E-01	2.48978E-01	1.15685E+00	-1.18483E+00
2.86928E-01	-4.51459E-02	1.15639E+00	-1.18022E+00
3.95441E-02	-2.72825E-01	1.15591E+00	-1.17566E+00
-2.30869E-01	-8.47282E-02	1.15541E+00	-1.17113E+00
-1.01206E-01	2.12406E-01	1.15489E+00	-1.16660E+00
2.17549E-01	1.40892E-01	1.15436E+00	-1.16207E+00
2.14179E-01	-1.93205E-01	1.15385E+00	-1.15755E+00
-1.15302E-01	-2.67867E-01	1.15336E+00	-1.15304E+00
-2.62078E-01	3.10496E-02	1.15290E+00	-1.14855E+00
-7.61660E-03	2.31422E-01	1.15245E+00	-1.14408E+00
2.33676E-01	2.12898E-02	1.15202E+00	-1.13964E+00
7.09124E-02	-2.60333E-01	1.15161E+00	-1.13524E+00
-2.46905E-01	-1.60919E-01	1.15121E+00	-1.13088E+00
-2.25881E-01	1.71940E-01	1.15081E+00	-1.12656E+00
9.43896E-02	2.25887E-01	1.15041E+00	-1.12227E+00
2.06987E-01	-6.81464E-02	1.15000E+00	-1.11800E+00
-6.11574E-02	-2.31238E-01	1.14959E+00	-1.11376E+00
-2.79576E-01	5.09030E-03	1.14917E+00	-1.10954E+00
-9.63944E-02	2.77509E-01	1.14876E+00	-1.10534E+00
2.08660E-01	1.66815E-01	1.14834E+00	-1.10116E+00
1.69105E-01	-1.43259E-01	1.14792E+00	-1.09700E+00
-1.34227E-01	-1.61118E-01	1.14751E+00	-1.09285E+00
-2.06599E-01	1.37016E-01	1.14710E+00	-1.08872E+00
7.81927E-02	2.74574E-01	1.14670E+00	-1.08460E+00
2.82701E-01	2.87752E-02	1.14630E+00	-1.08049E+00
9.82166E-02	-2.22042E-01	1.14592E+00	-1.07641E+00
-1.72906E-01	-9.88001E-02	1.14554E+00	-1.07234E+00
-9.98683E-02	1.84177E-01	1.14518E+00	-1.06830E+00
1.98626E-01	1.63978E-01	1.14482E+00	-1.06428E+00
2.47640E-01	-1.40458E-01	1.14447E+00	-1.06029E+00
-3.41190E-02	-2.63447E-01	1.14411E+00	-1.05632E+00
-2.11862E-01	-2.80782E-02	1.14376E+00	-1.05237E+00
-2.31431E-02	1.81374E-01	1.14341E+00	-1.04843E+00
2.14072E-01	3.07247E-02	1.14307E+00	-1.04452E+00
1.09454E-01	-2.40625E-01	1.14273E+00	-1.04063E+00
-1.85873E-01	-2.03471E-01	1.14239E+00	-1.03676E+00
-2.23479E-01	8.57409E-02	1.14204E+00	-1.03291E+00
3.61912E-02	1.80737E-01	1.14170E+00	-1.02907E+00
1.69503E-01	-4.98087E-02	1.14135E+00	-1.02525E+00
-3.84482E-02	-2.22703E-01	1.14101E+00	-1.02143E+00
-2.60367E-01	-4.99642E-02	1.14069E+00	-1.01763E+00
-1.48260E-01	2.10915E-01	1.14037E+00	-1.01385E+00
1.21524E-01	1.68527E-01	1.14006E+00	-1.01009E+00
1.33503E-01	-8.86358E-02	1.13974E+00	-1.00636E+00
-1.13052E-01	-1.40462E-01	1.13943E+00	-1.00264E+00
-2.11436E-01	1.00504E-01	1.13911E+00	-9.98926E-01
7.61229E-03	2.57927E-01	1.13881E+00	-9.95230E-01
2.14677E-01	8.88102E-02	1.13851E+00	-9.91551E-01
1.05396E-01	-1.39236E-01	1.13822E+00	-9.87893E-01
-1.25307E-01	-7.63799E-02	1.13793E+00	-9.84258E-01
-9.91068E-02	1.61368E-01	1.13763E+00	-9.80645E-01
1.49761E-01	1.83710E-01	1.13733E+00	-9.77047E-01
2.35804E-01	-5.73819E-02	1.13703E+00	-9.73457E-01
3.15633E-02	-1.98750E-01	1.13673E+00	-9.69871E-01
-1.38944E-01	-4.10616E-02	1.13644E+00	-9.66294E-01
-1.60559E-02	1.44491E-01	1.13616E+00	-9.62736E-01
1.91725E-01	5.11755E-02	1.13589E+00	-9.59202E-01
1.44370E-01	-1.82521E-01	1.13562E+00	-9.55689E-01
-9.49795E-02	-1.98307E-01	1.13534E+00	-9.52188E-01
-1.66695E-01	1.80765E-02	1.13505E+00	-9.48696E-01
1.82127E-02	1.22781E-01	1.13478E+00	-9.45212E-01
1.46610E-01	-4.11172E-02	1.13451E+00	-9.41740E-01
2.48485E-03	-2.03359E-01	1.13425E+00	-9.38283E-01
-1.97276E-01	-9.88979E-02	1.13400E+00	-9.34847E-01
-1.50846E-01	1.17915E-01	1.13374E+00	-9.31431E-01
5.62495E-02	1.23410E-01	1.13349E+00	-9.28032E-01
9.43964E-02	-6.74703E-02	1.13322E+00	-9.24643E-01
-8.98735E-02	-1.33912E-01	1.13296E+00	-9.21262E-01
-1.97559E-01	4.17232E-02	1.13270E+00	-9.17888E-01
-5.27387E-02	1.94587E-01	1.13246E+00	-9.14525E-01
1.25636E-01	9.91568E-02	1.13222E+00	-9.11180E-01
7.44010E-02	-8.08775E-02	1.13198E+00	-9.07855E-01
-1.03456E-01	-5.83415E-02	1.13174E+00	-9.04550E-01
-1.09936E-01	1.26463E-01	1.13150E+00	-9.01261E-01
