jMRUI Data Textfile
 
Filename: mI.txt
 
PointsInDataset: 2048
DatasetsInFile: 1
SamplingInterval: 5.00000E-01
ZeroOrderPhase: 0E0
BeginTime: 0E0
TransmitterFrequency: 1.27740E+08
MagneticField: 0E0
TypeOfNucleus: 0E0
NameOfPatient: 
DateOfExperiment: 
Spectrometer: Vespa-Simulation
AdditionalInfo: see 'readme' file for Vespa-Simulation output synopsis
 
  
Signal and FFT 
sig(real)	sig(imag)	fft(real)	fft(imag)
Signal 1 out of 1 in file
3.85242E+00	-1.29683E-01	2.16997E+00	-9.60142E+00
3.36181E+00	-1.66272E+00	2.16300E+00	-9.52065E+00
2.28846E+00	-2.79642E+00	2.15626E+00	-9.44128E+00
8.84977E-01	-3.33152E+00	2.14973E+00	-9.36329E+00
-5.43433E-01	-3.20995E+00	2.14340E+00	-9.28663E+00
-1.71103E+00	-2.51744E+00	2.13727E+00	-9.21127E+00
-2.41347E+00	-1.45255E+00	2.13133E+00	-9.13717E+00
-2.56558E+00	-2.72223E-01	2.12557E+00	-9.06429E+00
-2.20803E+00	7.70872E-01	2.11998E+00	-8.99261E+00
-1.48459E+00	1.48350E+00	2.11456E+00	-8.92209E+00
-5.98407E-01	1.76732E+00	2.10930E+00	-8.85270E+00
2.39841E-01	1.62848E+00	2.10419E+00	-8.78441E+00
8.58843E-01	1.16268E+00	2.09923E+00	-8.71719E+00
1.15843E+00	5.22168E-01	2.09442E+00	-8.65103E+00
1.12111E+00	-1.24956E-01	2.08975E+00	-8.58588E+00
8.03912E-01	-6.32827E-01	2.08521E+00	-8.52173E+00
3.15512E-01	-9.05228E-01	2.08080E+00	-8.45855E+00
-2.13757E-01	-9.08145E-01	2.07651E+00	-8.39632E+00
-6.61369E-01	-6.67566E-01	2.07234E+00	-8.33502E+00
-9.35520E-01	-2.55747E-01	2.06829E+00	-8.27462E+00
-9.88225E-01	2.28919E-01	2.06435E+00	-8.21510E+00
-8.18276E-01	6.83321E-01	2.06052E+00	-8.15644E+00
-4.65689E-01	1.01824E+00	2.05679E+00	-8.09863E+00
-4.52645E-04	1.17174E+00	2.05316E+00	-8.04164E+00
4.91556E-01	1.11660E+00	2.04963E+00	-7.98546E+00
9.23144E-01	8.61920E-01	2.04619E+00	-7.93006E+00
1.21922E+00	4.49842E-01	2.04284E+00	-7.87543E+00
1.32788E+00	-5.19102E-02	2.03957E+00	-7.82155E+00
1.22825E+00	-5.60763E-01	2.03639E+00	-7.76841E+00
9.34060E-01	-9.92292E-01	2.03328E+00	-7.71598E+00
4.92105E-01	-1.27412E+00	2.03025E+00	-7.66426E+00
-2.47348E-02	-1.35863E+00	2.02730E+00	-7.61322E+00
-5.29606E-01	-1.23223E+00	2.02442E+00	-7.56285E+00
-9.37177E-01	-9.19014E-01	2.02161E+00	-7.51313E+00
-1.17996E+00	-4.77111E-01	2.01888E+00	-7.46406E+00
-1.22175E+00	1.18748E-02	2.01622E+00	-7.41562E+00
-1.06533E+00	4.59046E-01	2.01362E+00	-7.36780E+00
-7.51887E-01	7.86399E-01	2.01109E+00	-7.32059E+00
-3.52071E-01	9.43063E-01	2.00863E+00	-7.27398E+00
4.97809E-02	9.15733E-01	2.00623E+00	-7.22795E+00
3.74439E-01	7.30428E-01	2.00388E+00	-7.18250E+00
5.65386E-01	4.45141E-01	2.00158E+00	-7.13760E+00
6.00581E-01	1.35091E-01	1.99933E+00	-7.09326E+00
4.95789E-01	-1.25838E-01	1.99713E+00	-7.04945E+00
2.98512E-01	-2.82613E-01	1.99499E+00	-7.00616E+00
7.43735E-02	-3.11340E-01	1.99289E+00	-6.96339E+00
-1.10420E-01	-2.23144E-01	1.99084E+00	-6.92111E+00
-2.05966E-01	-5.90683E-02	1.98885E+00	-6.87934E+00
-1.90503E-01	1.22442E-01	1.98691E+00	-6.83805E+00
-7.44163E-02	2.61866E-01	1.98501E+00	-6.79725E+00
1.04316E-01	3.14382E-01	1.98316E+00	-6.75692E+00
2.91580E-01	2.60952E-01	1.98136E+00	-6.71706E+00
4.32214E-01	1.12102E-01	1.97959E+00	-6.67765E+00
4.84483E-01	-9.61590E-02	1.97785E+00	-6.63869E+00
4.30312E-01	-3.12847E-01	1.97616E+00	-6.60016E+00
2.78817E-01	-4.85665E-01	1.97450E+00	-6.56206E+00
6.26546E-02	-5.74245E-01	1.97288E+00	-6.52439E+00
-1.71279E-01	-5.59422E-01	1.97129E+00	-6.48712E+00
-3.74140E-01	-4.46594E-01	1.96975E+00	-6.45027E+00
-5.06892E-01	-2.62681E-01	1.96823E+00	-6.41381E+00
-5.48677E-01	-4.80932E-02	1.96675E+00	-6.37775E+00
-4.99997E-01	1.53917E-01	1.96530E+00	-6.34207E+00
-3.80370E-01	3.07440E-01	1.96388E+00	-6.30678E+00
-2.21651E-01	3.91287E-01	1.96249E+00	-6.27185E+00
-5.91947E-02	4.01873E-01	1.96114E+00	-6.23729E+00
7.67003E-02	3.51540E-01	1.95981E+00	-6.20310E+00
1.66995E-01	2.63233E-01	1.95852E+00	-6.16926E+00
2.06379E-01	1.63394E-01	1.95725E+00	-6.13577E+00
2.02085E-01	7.50928E-02	1.95601E+00	-6.10263E+00
1.69750E-01	1.31036E-02	1.95480E+00	-6.06983E+00
1.27870E-01	-1.81251E-02	1.95360E+00	-6.03736E+00
9.24868E-02	-2.34855E-02	1.95244E+00	-6.00522E+00
7.34535E-02	-1.40251E-02	1.95129E+00	-5.97339E+00
7.29740E-02	-2.70225E-03	1.95017E+00	-5.94189E+00
8.64425E-02	-3.79515E-04	1.94907E+00	-5.91070E+00
1.04950E-01	-1.31005E-02	1.94799E+00	-5.87981E+00
1.18509E-01	-4.11261E-02	1.94693E+00	-5.84922E+00
1.19004E-01	-7.97013E-02	1.94589E+00	-5.81893E+00
1.02129E-01	-1.20987E-01	1.94488E+00	-5.78892E+00
6.79860E-02	-1.56468E-01	1.94389E+00	-5.75920E+00
2.04542E-02	-1.79051E-01	1.94292E+00	-5.72976E+00
-3.42459E-02	-1.84387E-01	1.94198E+00	-5.70060E+00
-8.91650E-02	-1.71217E-01	1.94106E+00	-5.67173E+00
-1.37981E-01	-1.40935E-01	1.94017E+00	-5.64313E+00
-1.75766E-01	-9.67071E-02	1.93929E+00	-5.61480E+00
-1.99104E-01	-4.26212E-02	1.93842E+00	-5.58674E+00
-2.05865E-01	1.68820E-02	1.93756E+00	-5.55894E+00
-1.94895E-01	7.71466E-02	1.93672E+00	-5.53140E+00
-1.65938E-01	1.33190E-01	1.93588E+00	-5.50409E+00
-1.19938E-01	1.79544E-01	1.93507E+00	-5.47703E+00
-5.96051E-02	2.10477E-01	1.93427E+00	-5.45021E+00
1.00316E-02	2.20691E-01	1.93349E+00	-5.42363E+00
8.14950E-02	2.06505E-01	1.93274E+00	-5.39728E+00
1.45396E-01	1.67229E-01	1.93200E+00	-5.37117E+00
1.91852E-01	1.06272E-01	1.93129E+00	-5.34530E+00
2.12528E-01	3.14546E-02	1.93059E+00	-5.31966E+00
2.02825E-01	-4.57561E-02	1.92989E+00	-5.29426E+00
1.63615E-01	-1.12215E-01	1.92921E+00	-5.26907E+00
1.01867E-01	-1.55893E-01	1.92853E+00	-5.24410E+00
2.97386E-02	-1.68867E-01	1.92786E+00	-5.21935E+00
-3.77864E-02	-1.49638E-01	1.92720E+00	-5.19479E+00
-8.63528E-02	-1.04071E-01	1.92655E+00	-5.17044E+00
-1.05886E-01	-4.44657E-02	1.92593E+00	-5.14630E+00
-9.34618E-02	1.32030E-02	1.92531E+00	-5.12235E+00
-5.44832E-02	5.32581E-02	1.92472E+00	-5.09861E+00
-1.69396E-03	6.45570E-02	1.92414E+00	-5.07507E+00
4.79204E-02	4.37870E-02	1.92358E+00	-5.05172E+00
7.76084E-02	-3.18064E-03	1.92302E+00	-5.02858E+00
7.55855E-02	-6.23984E-02	1.92247E+00	-5.00562E+00
3.86819E-02	-1.15291E-01	1.92193E+00	-4.98286E+00
-2.62057E-02	-1.43627E-01	1.92140E+00	-4.96028E+00
-1.03370E-01	-1.34689E-01	1.92088E+00	-4.93788E+00
-1.72111E-01	-8.52273E-02	1.92036E+00	-4.91566E+00
-2.12148E-01	-3.00270E-03	1.91985E+00	-4.89361E+00
-2.09212E-01	9.46605E-02	1.91936E+00	-4.87173E+00
-1.59253E-01	1.84962E-01	1.91888E+00	-4.85002E+00
-7.00646E-02	2.45433E-01	1.91842E+00	-4.82849E+00
4.02610E-02	2.59851E-01	1.91797E+00	-4.80713E+00
1.47622E-01	2.22653E-01	1.91754E+00	-4.78593E+00
2.27940E-01	1.40635E-01	1.91711E+00	-4.76492E+00
2.63256E-01	3.14294E-02	1.91670E+00	-4.74407E+00
2.46260E-01	-8.09038E-02	1.91628E+00	-4.72339E+00
1.82037E-01	-1.71875E-01	1.91587E+00	-4.70288E+00
8.65947E-02	-2.22667E-01	1.91544E+00	-4.68252E+00
-1.73983E-02	-2.24616E-01	1.91502E+00	-4.66231E+00
-1.06486E-01	-1.80954E-01	1.91460E+00	-4.64223E+00
-1.62217E-01	-1.05416E-01	1.91418E+00	-4.62229E+00
-1.75421E-01	-1.82285E-02	1.91379E+00	-4.60249E+00
-1.47835E-01	5.93476E-02	1.91343E+00	-4.58282E+00
-9.08185E-02	1.10373E-01	1.91309E+00	-4.56331E+00
-2.16554E-02	1.26093E-01	1.91278E+00	-4.54396E+00
4.13070E-02	1.07302E-01	1.91248E+00	-4.52477E+00
8.33877E-02	6.31639E-02	1.91219E+00	-4.50575E+00
9.68380E-02	7.94851E-03	1.91187E+00	-4.48689E+00
8.19327E-02	-4.31836E-02	1.91154E+00	-4.46817E+00
4.58272E-02	-7.81029E-02	1.91118E+00	-4.44957E+00
-2.28721E-04	-9.02976E-02	1.91083E+00	-4.43108E+00
-4.43261E-02	-7.95940E-02	1.91047E+00	-4.41270E+00
-7.69463E-02	-5.10752E-02	1.91014E+00	-4.39444E+00
-9.27598E-02	-1.28238E-02	1.90984E+00	-4.37629E+00
-9.09605E-02	2.66634E-02	1.90955E+00	-4.35827E+00
-7.42711E-02	6.05386E-02	1.90929E+00	-4.34039E+00
-4.72513E-02	8.46199E-02	1.90904E+00	-4.32265E+00
-1.46375E-02	9.72826E-02	1.90881E+00	-4.30505E+00
1.96872E-02	9.85697E-02	1.90857E+00	-4.28759E+00
5.28754E-02	8.91061E-02	1.90832E+00	-4.27026E+00
8.25318E-02	6.94055E-02	1.90805E+00	-4.25305E+00
1.05938E-01	3.99045E-02	1.90778E+00	-4.23595E+00
1.19576E-01	1.68663E-03	1.90750E+00	-4.21895E+00
1.19405E-01	-4.24942E-02	1.90724E+00	-4.20205E+00
1.01961E-01	-8.74811E-02	1.90699E+00	-4.18526E+00
6.59873E-02	-1.25809E-01	1.90675E+00	-4.16858E+00
1.39258E-02	-1.48915E-01	1.90652E+00	-4.15201E+00
-4.73206E-02	-1.49231E-01	1.90631E+00	-4.13556E+00
-1.06992E-01	-1.22688E-01	1.90610E+00	-4.11923E+00
-1.52467E-01	-7.07378E-02	1.90589E+00	-4.10300E+00
-1.72296E-01	-1.13253E-03	1.90568E+00	-4.08689E+00
-1.59465E-01	7.30234E-02	1.90548E+00	-4.07088E+00
-1.13909E-01	1.35927E-01	1.90529E+00	-4.05497E+00
-4.34031E-02	1.72855E-01	1.90509E+00	-4.03917E+00
3.76596E-02	1.74094E-01	1.90490E+00	-4.02347E+00
1.11341E-01	1.37847E-01	1.90472E+00	-4.00788E+00
1.60521E-01	7.12691E-02	1.90453E+00	-3.99239E+00
1.73291E-01	-1.08417E-02	1.90435E+00	-3.97699E+00
1.46212E-01	-8.94575E-02	1.90417E+00	-3.96169E+00
8.54631E-02	-1.45990E-01	1.90399E+00	-3.94649E+00
5.52929E-03	-1.66990E-01	1.90382E+00	-3.93138E+00
-7.43644E-02	-1.47615E-01	1.90365E+00	-3.91636E+00
-1.34997E-01	-9.28848E-02	1.90349E+00	-3.90144E+00
-1.61996E-01	-1.64229E-02	1.90334E+00	-3.88661E+00
-1.49380E-01	6.30232E-02	1.90319E+00	-3.87188E+00
-1.00905E-01	1.26327E-01	1.90304E+00	-3.85724E+00
-2.89177E-02	1.58727E-01	1.90289E+00	-3.84270E+00
4.89328E-02	1.53337E-01	1.90275E+00	-3.82824E+00
1.14247E-01	1.12537E-01	1.90261E+00	-3.81387E+00
1.52334E-01	4.69960E-02	1.90247E+00	-3.79959E+00
1.55603E-01	-2.73292E-02	1.90233E+00	-3.78539E+00
1.24958E-01	-9.33252E-02	1.90220E+00	-3.77128E+00
6.90182E-02	-1.36865E-01	1.90206E+00	-3.75725E+00
1.50788E-03	-1.49905E-01	1.90194E+00	-3.74331E+00
-6.23677E-02	-1.31846E-01	1.90181E+00	-3.72944E+00
-1.09558E-01	-8.89777E-02	1.90169E+00	-3.71566E+00
-1.31933E-01	-3.23054E-02	1.90158E+00	-3.70196E+00
-1.27505E-01	2.54372E-02	1.90147E+00	-3.68835E+00
-1.00113E-01	7.28429E-02	1.90137E+00	-3.67481E+00
-5.77564E-02	1.02127E-01	1.90127E+00	-3.66136E+00
-1.02496E-02	1.10232E-01	1.90117E+00	-3.64798E+00
3.31462E-02	9.86722E-02	1.90107E+00	-3.63469E+00
6.55047E-02	7.23736E-02	1.90098E+00	-3.62148E+00
8.31443E-02	3.79977E-02	1.90088E+00	-3.60834E+00
8.55810E-02	2.30439E-03	1.90078E+00	-3.59527E+00
