jMRUI Data Textfile
 
Filename: NAA.txt
 
PointsInDataset: 2048
DatasetsInFile: 1
SamplingInterval: 5.00000E-01
ZeroOrderPhase: 0E0
BeginTime: 0E0
TransmitterFrequency: 1.27740E+08
MagneticField: 0E0
TypeOfNucleus: 0E0
NameOfPatient: 
DateOfExperiment: 
Spectrometer: Vespa-Simulation
AdditionalInfo: see 'readme' file for Vespa-Simulation output synopsis
 
  
Signal and FFT 
sig(real)	sig(imag)	fft(real)	fft(imag)
Signal 1 out of 1 in file
4.60096E+00	-2.69038E-01	2.80292E+00	-4.75743E+00
2.08706E+00	-2.61083E+00	2.77632E+00	-4.70817E+00
-2.22235E+00	-2.61260E+00	2.75089E+00	-4.66064E+00
-3.75054E+00	-2.79468E-01	2.72659E+00	-4.61455E+00
-1.13360E+00	2.23268E+00	2.70341E+00	-4.56973E+00
2.55145E+00	2.49938E+00	2.68132E+00	-4.52603E+00
3.41039E+00	1.80136E-01	2.66028E+00	-4.48336E+00
8.78448E-01	-2.46375E+00	2.64027E+00	-4.44165E+00
-2.08235E+00	-2.72479E+00	2.62124E+00	-4.40083E+00
-2.47193E+00	-3.02688E-01	2.60315E+00	-4.36086E+00
-2.99425E-01	2.23814E+00	2.58596E+00	-4.32169E+00
1.87915E+00	2.15947E+00	2.56963E+00	-4.28329E+00
1.89869E+00	-4.24061E-01	2.55413E+00	-4.24563E+00
4.11423E-02	-2.62162E+00	2.53942E+00	-4.20869E+00
-1.63941E+00	-1.98958E+00	2.52547E+00	-4.17245E+00
-1.55630E+00	7.14807E-01	2.51221E+00	-4.13690E+00
-3.81254E-03	2.42072E+00	2.49963E+00	-4.10200E+00
1.37658E+00	1.25850E+00	2.48767E+00	-4.06775E+00
1.25946E+00	-1.35483E+00	2.47632E+00	-4.03411E+00
-1.73957E-01	-2.41948E+00	2.46553E+00	-4.00109E+00
-1.47955E+00	-7.93964E-01	2.45527E+00	-3.96865E+00
-1.33926E+00	1.60214E+00	2.44551E+00	-3.93679E+00
1.42699E-01	2.08276E+00	2.43622E+00	-3.90548E+00
1.46845E+00	2.22221E-01	2.42736E+00	-3.87471E+00
1.20720E+00	-1.80774E+00	2.41892E+00	-3.84444E+00
-4.62927E-01	-1.77927E+00	2.41089E+00	-3.81466E+00
-1.79715E+00	1.74533E-01	2.40324E+00	-3.78538E+00
-1.27476E+00	1.87309E+00	2.39594E+00	-3.75658E+00
6.71638E-01	1.54831E+00	2.38897E+00	-3.72824E+00
1.97478E+00	-3.49412E-01	2.38231E+00	-3.70034E+00
1.14161E+00	-1.79780E+00	2.37594E+00	-3.67287E+00
-1.02326E+00	-1.37014E+00	2.36986E+00	-3.64580E+00
-2.19294E+00	4.09095E-01	2.36404E+00	-3.61913E+00
-1.05148E+00	1.74054E+00	2.35848E+00	-3.59284E+00
1.21805E+00	1.37071E+00	2.35317E+00	-3.56693E+00
2.19750E+00	-2.70212E-01	2.34809E+00	-3.54137E+00
8.68968E-01	-1.58109E+00	2.34324E+00	-3.51617E+00
-1.30802E+00	-1.34168E+00	2.33861E+00	-3.49131E+00
-2.03450E+00	1.65201E-01	2.33418E+00	-3.46679E+00
-6.50489E-01	1.46196E+00	2.32995E+00	-3.44259E+00
1.26734E+00	1.30605E+00	2.32591E+00	-3.41872E+00
1.71756E+00	-1.05498E-01	2.32204E+00	-3.39515E+00
3.91747E-01	-1.33460E+00	2.31834E+00	-3.37189E+00
-1.16580E+00	-1.15244E+00	2.31480E+00	-3.34893E+00
-1.34127E+00	1.98430E-01	2.31140E+00	-3.32625E+00
-1.20520E-01	1.25998E+00	2.30815E+00	-3.30386E+00
1.07287E+00	9.12432E-01	2.30503E+00	-3.28174E+00
9.98719E-01	-4.18593E-01	2.30203E+00	-3.25989E+00
-1.43945E-01	-1.23489E+00	2.29914E+00	-3.23828E+00
-1.06191E+00	-6.27388E-01	2.29638E+00	-3.21691E+00
-7.92419E-01	7.09601E-01	2.29372E+00	-3.19578E+00
3.31707E-01	1.25638E+00	2.29118E+00	-3.17488E+00
1.09872E+00	3.76112E-01	2.28874E+00	-3.15420E+00
6.96522E-01	-9.64453E-01	2.28641E+00	-3.13374E+00
-4.66363E-01	-1.26988E+00	2.28417E+00	-3.11350E+00
-1.19142E+00	-1.77406E-01	2.28202E+00	-3.09346E+00
-7.13345E-01	1.14423E+00	2.27997E+00	-3.07363E+00
5.12198E-01	1.27733E+00	2.27801E+00	-3.05399E+00
1.25136E+00	8.40574E-02	2.27613E+00	-3.03456E+00
7.39011E-01	-1.17419E+00	2.27433E+00	-3.01532E+00
-5.24513E-01	-1.20181E+00	2.27260E+00	-2.99628E+00
-1.26193E+00	-1.44551E-02	2.27094E+00	-2.97741E+00
-7.23483E-01	1.13653E+00	2.26935E+00	-2.95873E+00
5.33145E-01	1.10115E+00	2.26781E+00	-2.94022E+00
1.21714E+00	-1.45819E-02	2.26634E+00	-2.92187E+00
6.47457E-01	-1.03248E+00	2.26493E+00	-2.90368E+00
-5.48449E-01	-9.48652E-01	2.26357E+00	-2.88565E+00
-1.11628E+00	7.64036E-02	2.26227E+00	-2.86777E+00
-5.00523E-01	9.52295E-01	2.26101E+00	-2.85004E+00
6.00702E-01	8.06488E-01	2.25982E+00	-2.83245E+00
1.01679E+00	-1.52116E-01	2.25868E+00	-2.81500E+00
3.49975E-01	-9.01096E-01	2.25759E+00	-2.79770E+00
-6.46114E-01	-6.81526E-01	2.25656E+00	-2.78053E+00
-9.13011E-01	2.37425E-01	2.25558E+00	-2.76350E+00
-2.08472E-01	8.73910E-01	2.25464E+00	-2.74661E+00
6.84194E-01	5.73511E-01	2.25374E+00	-2.72985E+00
8.25341E-01	-3.19794E-01	2.25288E+00	-2.71322E+00
1.02093E-01	-8.52204E-01	2.25206E+00	-2.69671E+00
-6.97671E-01	-4.77771E-01	2.25128E+00	-2.68033E+00
-7.44442E-01	3.79832E-01	2.25053E+00	-2.66406E+00
-2.47255E-02	8.04875E-01	2.24982E+00	-2.64791E+00
6.83052E-01	3.72555E-01	2.24913E+00	-2.63188E+00
6.46813E-01	-4.21993E-01	2.24848E+00	-2.61595E+00
-6.27943E-02	-7.25770E-01	2.24786E+00	-2.60013E+00
-6.74902E-01	-2.45737E-01	2.24727E+00	-2.58441E+00
-5.46931E-01	4.68375E-01	2.24671E+00	-2.56878E+00
1.61356E-01	6.47320E-01	2.24618E+00	-2.55326E+00
6.73614E-01	1.27400E-01	2.24568E+00	-2.53784E+00
4.36851E-01	-5.05080E-01	2.24521E+00	-2.52251E+00
-2.83562E-01	-5.67097E-01	2.24478E+00	-2.50728E+00
-6.93254E-01	-4.42537E-03	2.24437E+00	-2.49214E+00
-3.34012E-01	5.71781E-01	2.24399E+00	-2.47710E+00
4.11881E-01	5.44149E-01	2.24362E+00	-2.46215E+00
7.31397E-01	-6.49064E-02	2.24328E+00	-2.44728E+00
2.64948E-01	-6.22557E-01	2.24297E+00	-2.43251E+00
-4.97735E-01	-5.42514E-01	2.24267E+00	-2.41782E+00
-7.42536E-01	1.09944E-01	2.24239E+00	-2.40321E+00
-2.05047E-01	6.77172E-01	2.24212E+00	-2.38868E+00
5.52283E-01	5.73075E-01	2.24188E+00	-2.37422E+00
7.45994E-01	-1.15696E-01	2.24165E+00	-2.35984E+00
1.92848E-01	-7.03167E-01	2.24143E+00	-2.34553E+00
-5.24452E-01	-5.92692E-01	2.24124E+00	-2.33128E+00
-6.87319E-01	1.09741E-01	2.24107E+00	-2.31710E+00
-1.71007E-01	6.93342E-01	2.24092E+00	-2.30299E+00
4.74260E-01	5.68382E-01	2.24079E+00	-2.28894E+00
6.18013E-01	-1.24383E-01	2.24069E+00	-2.27497E+00
1.68577E-01	-6.64285E-01	2.24061E+00	-2.26106E+00
-3.90979E-01	-5.09110E-01	2.24054E+00	-2.24722E+00
-5.21444E-01	1.43695E-01	2.24049E+00	-2.23344E+00
-1.44558E-01	5.90710E-01	2.24046E+00	-2.21973E+00
3.29264E-01	3.86174E-01	2.24045E+00	-2.20609E+00
4.36017E-01	-2.01076E-01	2.24044E+00	-2.19252E+00
1.04954E-01	-5.19112E-01	2.24044E+00	-2.17901E+00
-3.02215E-01	-2.56946E-01	2.24044E+00	-2.16555E+00
-3.70773E-01	2.47722E-01	2.24044E+00	-2.15215E+00
-4.88829E-02	4.26210E-01	2.24044E+00	-2.13878E+00
3.08770E-01	1.15460E-01	2.24046E+00	-2.12545E+00
3.14775E-01	-2.99111E-01	2.24050E+00	-2.11215E+00
-3.74503E-02	-3.50865E-01	2.24057E+00	-2.09890E+00
-3.57880E-01	-7.67019E-03	2.24067E+00	-2.08569E+00
-2.79358E-01	3.28866E-01	2.24079E+00	-2.07255E+00
1.27311E-01	2.91895E-01	2.24094E+00	-2.05946E+00
4.10704E-01	-6.12506E-02	2.24109E+00	-2.04644E+00
2.34915E-01	-3.42117E-01	2.24125E+00	-2.03348E+00
-2.26792E-01	-2.59300E-01	2.24140E+00	-2.02056E+00
-4.62052E-01	9.17263E-02	2.24156E+00	-2.00769E+00
-1.89453E-01	3.50783E-01	2.24171E+00	-1.99486E+00
3.09168E-01	2.62341E-01	2.24187E+00	-1.98205E+00
4.87238E-01	-8.43352E-02	2.24204E+00	-1.96928E+00
1.41319E-01	-3.53478E-01	2.24221E+00	-1.95655E+00
-3.57276E-01	-2.84219E-01	2.24240E+00	-1.94384E+00
-4.71771E-01	6.39094E-02	2.24260E+00	-1.93116E+00
-8.84678E-02	3.60502E-01	2.24281E+00	-1.91852E+00
3.72607E-01	3.11480E-01	2.24304E+00	-1.90591E+00
4.30052E-01	-5.00028E-02	2.24328E+00	-1.89334E+00
5.31209E-02	-3.74866E-01	2.24353E+00	-1.88080E+00
-3.40539E-01	-3.32383E-01	2.24380E+00	-1.86830E+00
-3.56730E-01	4.48741E-02	2.24407E+00	-1.85584E+00
-2.35401E-02	3.72795E-01	2.24434E+00	-1.84340E+00
2.88490E-01	3.06933E-01	2.24462E+00	-1.83099E+00
2.80066E-01	-8.41613E-02	2.24491E+00	-1.81860E+00
5.00865E-03	-3.80853E-01	2.24521E+00	-1.80624E+00
-2.36885E-01	-2.65845E-01	2.24552E+00	-1.79391E+00
-2.23393E-01	1.24818E-01	2.24584E+00	-1.78162E+00
-3.81767E-03	3.54012E-01	2.24616E+00	-1.76935E+00
1.88875E-01	1.75116E-01	2.24648E+00	-1.75710E+00
1.74333E-01	-1.95172E-01	2.24680E+00	-1.74487E+00
-1.95020E-02	-3.32883E-01	2.24713E+00	-1.73266E+00
-1.98035E-01	-9.16200E-02	2.24746E+00	-1.72046E+00
-1.84164E-01	2.42691E-01	2.24781E+00	-1.70827E+00
1.39949E-02	2.92313E-01	2.24818E+00	-1.69610E+00
2.00598E-01	1.58108E-02	2.24856E+00	-1.68395E+00
1.75335E-01	-2.64538E-01	2.24895E+00	-1.67183E+00
-5.51158E-02	-2.41719E-01	2.24935E+00	-1.65972E+00
-2.58764E-01	4.20102E-02	2.24976E+00	-1.64764E+00
-2.07591E-01	2.70224E-01	2.25017E+00	-1.63557E+00
6.58322E-02	2.14264E-01	2.25059E+00	-1.62351E+00
2.77182E-01	-3.88337E-02	2.25103E+00	-1.61148E+00
1.89894E-01	-2.15262E-01	2.25146E+00	-1.59947E+00
-1.12035E-01	-1.53913E-01	2.25190E+00	-1.58748E+00
-3.00197E-01	5.48991E-02	2.25233E+00	-1.57550E+00
-1.64069E-01	1.97671E-01	2.25276E+00	-1.56352E+00
1.46981E-01	1.55407E-01	2.25319E+00	-1.55155E+00
2.88896E-01	-8.19648E-03	2.25363E+00	-1.53958E+00
1.12881E-01	-1.33460E-01	2.25408E+00	-1.52761E+00
-1.69886E-01	-1.13104E-01	2.25453E+00	-1.51565E+00
-2.37644E-01	2.44835E-02	2.25500E+00	-1.50369E+00
-2.59767E-02	1.46715E-01	2.25547E+00	-1.49174E+00
2.12320E-01	1.33065E-01	2.25595E+00	-1.47978E+00
2.10543E-01	-1.04434E-02	2.25645E+00	-1.46783E+00
-1.12481E-02	-1.43079E-01	2.25695E+00	-1.45588E+00
-1.89541E-01	-1.20212E-01	2.25747E+00	-1.44394E+00
-1.29790E-01	4.71448E-02	2.25800E+00	-1.43201E+00
8.52818E-02	1.81454E-01	2.25854E+00	-1.42008E+00
2.12444E-01	1.20827E-01	2.25907E+00	-1.40816E+00
1.25603E-01	-8.85348E-02	2.25961E+00	-1.39624E+00
-6.54850E-02	-2.21027E-01	2.26015E+00	-1.38432E+00
-1.58894E-01	-1.18550E-01	2.26069E+00	-1.37240E+00
-7.57446E-02	1.16674E-01	2.26123E+00	-1.36046E+00
8.28860E-02	2.21605E-01	2.26178E+00	-1.34852E+00
1.60818E-01	6.94028E-02	2.26233E+00	-1.33656E+00
9.62688E-02	-1.77235E-01	2.26289E+00	-1.32459E+00
-4.16037E-02	-2.44919E-01	2.26347E+00	-1.31261E+00
-1.29516E-01	-6.05049E-02	2.26406E+00	-1.30062E+00
-9.44716E-02	1.66595E-01	2.26467E+00	-1.28861E+00
3.04571E-02	1.85645E-01	2.26530E+00	-1.27660E+00
1.31141E-01	-1.37944E-02	2.26595E+00	-1.26458E+00
1.06811E-01	-2.02232E-01	2.26661E+00	-1.25257E+00
-3.12009E-02	-1.78078E-01	2.26729E+00	-1.24056E+00
-1.52970E-01	1.48884E-02	2.26798E+00	-1.22856E+00
-1.29345E-01	1.57914E-01	2.26866E+00	-1.21656E+00
