jMRUI Data Textfile
 
Filename: PCho.txt
 
PointsInDataset: 2048
DatasetsInFile: 1
SamplingInterval: 5.00000E-01
ZeroOrderPhase: 0E0
BeginTime: 0E0
TransmitterFrequency: 1.27740E+08
MagneticField: 0E0
TypeOfNucleus: 0E0
NameOfPatient: 
DateOfExperiment: 
Spectrometer: Vespa-Simulation
AdditionalInfo: see 'readme' file for Vespa-Simulation output synopsis
 
  
Signal and FFT 
sig(real)	sig(imag)	fft(real)	fft(imag)
Signal 1 out of 1 in file
9.00000E+00	-1.75072E-16	4.90589E+00	-1.45692E+01
7.31850E+00	-4.99344E+00	4.90188E+00	-1.44903E+01
3.18067E+00	-8.12100E+00	4.89795E+00	-1.44122E+01
-1.91933E+00	-8.36844E+00	4.89408E+00	-1.43349E+01
-6.20377E+00	-5.74004E+00	4.89028E+00	-1.42584E+01
-8.22942E+00	-1.22560E+00	4.88652E+00	-1.41826E+01
-7.37189E+00	3.56929E+00	4.88282E+00	-1.41075E+01
-4.01423E+00	6.99255E+00	4.87917E+00	-1.40332E+01
6.15414E-01	7.91331E+00	4.87559E+00	-1.39595E+01
4.89093E+00	6.09340E+00	4.87206E+00	-1.38866E+01
7.35792E+00	2.24133E+00	4.86860E+00	-1.38143E+01
7.22677E+00	-2.25980E+00	4.86518E+00	-1.37428E+01
4.62277E+00	-5.84720E+00	4.86181E+00	-1.36719E+01
5.14895E-01	-7.31958E+00	4.85847E+00	-1.36016E+01
-3.64241E+00	-6.23771E+00	4.85517E+00	-1.35321E+01
-6.42272E+00	-3.05142E+00	4.85190E+00	-1.34631E+01
-6.91575E+00	1.08221E+00	4.84868E+00	-1.33948E+01
-5.02321E+00	4.71706E+00	4.84552E+00	-1.33270E+01
-1.46760E+00	6.62276E+00	4.84242E+00	-1.32599E+01
2.48108E+00	6.19967E+00	4.83937E+00	-1.31934E+01
5.45728E+00	3.66479E+00	4.83636E+00	-1.31275E+01
6.47100E+00	-4.77612E-02	4.83339E+00	-1.30622E+01
5.23550E+00	-3.62912E+00	4.83046E+00	-1.29974E+01
2.24380E+00	-5.85587E+00	4.82757E+00	-1.29332E+01
-1.42442E+00	-6.00672E+00	4.82473E+00	-1.28696E+01
-4.49098E+00	-4.09416E+00	4.82194E+00	-1.28066E+01
-5.92346E+00	-8.37514E-01	4.81919E+00	-1.27441E+01
-5.28143E+00	2.60546E+00	4.81648E+00	-1.26822E+01
-2.84911E+00	5.04895E+00	4.81380E+00	-1.26208E+01
4.84457E-01	5.68640E+00	4.81113E+00	-1.25599E+01
3.54891E+00	4.35520E+00	4.80848E+00	-1.24996E+01
5.30224E+00	1.57247E+00	4.80584E+00	-1.24398E+01
5.18404E+00	-1.66318E+00	4.80322E+00	-1.23805E+01
3.29274E+00	-4.22867E+00	4.80064E+00	-1.23216E+01
3.31329E-01	-5.26551E+00	4.79810E+00	-1.22632E+01
-2.65199E+00	-4.46558E+00	4.79561E+00	-1.22053E+01
-4.63412E+00	-2.15990E+00	4.79316E+00	-1.21479E+01
-4.96668E+00	8.14812E-01	4.79074E+00	-1.20910E+01
-3.58668E+00	3.41820E+00	4.78832E+00	-1.20345E+01
-1.02002E+00	4.76956E+00	4.78592E+00	-1.19785E+01
1.81680E+00	4.44439E+00	4.78358E+00	-1.19229E+01
3.94325E+00	2.60599E+00	4.78130E+00	-1.18677E+01
4.65239E+00	-6.86806E-02	4.77907E+00	-1.18130E+01
3.74504E+00	-2.63715E+00	4.77689E+00	-1.17588E+01
1.58221E+00	-4.22228E+00	4.77472E+00	-1.17051E+01
-1.05606E+00	-4.31126E+00	4.77255E+00	-1.16518E+01
-3.25074E+00	-2.91986E+00	4.77036E+00	-1.15989E+01
-4.26341E+00	-5.70768E-01	4.76818E+00	-1.15464E+01
-3.78352E+00	1.90135E+00	4.76603E+00	-1.14942E+01
-2.02174E+00	3.64530E+00	4.76392E+00	-1.14425E+01
3.78530E-01	4.08595E+00	4.76186E+00	-1.13912E+01
2.57478E+00	3.11255E+00	4.75983E+00	-1.13402E+01
3.82066E+00	1.10244E+00	4.75782E+00	-1.12897E+01
3.71850E+00	-1.22331E+00	4.75582E+00	-1.12396E+01
2.34501E+00	-3.05790E+00	4.75383E+00	-1.11898E+01
2.10309E-01	-3.78766E+00	4.75188E+00	-1.11404E+01
-1.93050E+00	-3.19667E+00	4.74998E+00	-1.10913E+01
-3.34340E+00	-1.52835E+00	4.74814E+00	-1.10426E+01
-3.56672E+00	6.12182E-01	4.74636E+00	-1.09943E+01
-2.56066E+00	2.47673E+00	4.74461E+00	-1.09464E+01
-7.08109E-01	3.43472E+00	4.74288E+00	-1.08989E+01
1.32989E+00	3.18587E+00	4.74112E+00	-1.08518E+01
2.84901E+00	1.85280E+00	4.73934E+00	-1.08050E+01
3.34470E+00	-7.40939E-02	4.73753E+00	-1.07586E+01
2.67868E+00	-1.91600E+00	4.73573E+00	-1.07124E+01
1.11522E+00	-3.04421E+00	4.73395E+00	-1.06666E+01
-7.82166E-01	-3.09420E+00	4.73221E+00	-1.06211E+01
-2.35279E+00	-2.08211E+00	4.73050E+00	-1.05759E+01
-3.06842E+00	-3.87692E-01	4.72881E+00	-1.05310E+01
-2.71027E+00	1.38713E+00	4.72712E+00	-1.04865E+01
-1.43427E+00	2.63171E+00	4.72544E+00	-1.04422E+01
2.93866E-01	2.93578E+00	4.72379E+00	-1.03982E+01
1.86777E+00	2.22427E+00	4.72221E+00	-1.03545E+01
2.75290E+00	7.72398E-01	4.72073E+00	-1.03110E+01
2.66711E+00	-8.99313E-01	4.71936E+00	-1.02680E+01
1.66982E+00	-2.21108E+00	4.71805E+00	-1.02253E+01
1.31131E-01	-2.72444E+00	4.71675E+00	-1.01830E+01
-1.40498E+00	-2.28817E+00	4.71536E+00	-1.01412E+01
-2.41202E+00	-1.08112E+00	4.71383E+00	-1.00997E+01
-2.56121E+00	4.59140E-01	4.71216E+00	-1.00584E+01
-1.82798E+00	1.79435E+00	4.71044E+00	-1.00172E+01
-4.90886E-01	2.47332E+00	4.70875E+00	-9.97612E+00
9.73110E-01	2.28357E+00	4.70718E+00	-9.93524E+00
2.05826E+00	1.31706E+00	4.70574E+00	-9.89462E+00
2.40445E+00	-7.10064E-02	4.70439E+00	-9.85427E+00
1.91581E+00	-1.39181E+00	4.70314E+00	-9.81420E+00
7.85645E-01	-2.19472E+00	4.70201E+00	-9.77445E+00
-5.78782E-01	-2.22058E+00	4.70098E+00	-9.73509E+00
-1.70269E+00	-1.48456E+00	4.69994E+00	-9.69616E+00
-2.20825E+00	-2.62483E-01	4.69880E+00	-9.65762E+00
-1.94130E+00	1.01177E+00	4.69750E+00	-9.61937E+00
-1.01728E+00	1.89980E+00	4.69606E+00	-9.58131E+00
2.26855E-01	2.10927E+00	4.69455E+00	-9.54337E+00
1.35476E+00	1.58931E+00	4.69306E+00	-9.50553E+00
1.98343E+00	5.40759E-01	4.69166E+00	-9.46783E+00
1.91288E+00	-6.60746E-01	4.69037E+00	-9.43035E+00
1.18888E+00	-1.59862E+00	4.68918E+00	-9.39313E+00
7.97838E-02	-1.95957E+00	4.68805E+00	-9.35620E+00
-1.02231E+00	-1.63774E+00	4.68694E+00	-9.31956E+00
-1.73998E+00	-7.64540E-01	4.68582E+00	-9.28319E+00
-1.83907E+00	3.43700E-01	4.68469E+00	-9.24705E+00
-1.30477E+00	1.29986E+00	4.68357E+00	-9.21114E+00
-3.39834E-01	1.78092E+00	4.68246E+00	-9.17547E+00
7.11772E-01	1.63673E+00	4.68136E+00	-9.14003E+00
1.48690E+00	9.36011E-01	4.68025E+00	-9.10483E+00
1.72842E+00	-6.38015E-02	4.67913E+00	-9.06986E+00
1.37009E+00	-1.01086E+00	4.67799E+00	-9.03510E+00
5.53243E-01	-1.58217E+00	4.67684E+00	-9.00054E+00
-4.27961E-01	-1.59352E+00	4.67567E+00	-8.96615E+00
-1.23211E+00	-1.05837E+00	4.67452E+00	-8.93194E+00
-1.58912E+00	-1.77017E-01	4.67340E+00	-8.89790E+00
-1.39043E+00	7.37754E-01	4.67232E+00	-8.86405E+00
-7.21316E-01	1.37137E+00	4.67129E+00	-8.83040E+00
1.74291E-01	1.51536E+00	4.67029E+00	-8.79698E+00
9.82499E-01	1.13553E+00	4.66930E+00	-8.76377E+00
1.42896E+00	3.78250E-01	4.66833E+00	-8.73078E+00
1.37186E+00	-4.85218E-01	4.66737E+00	-8.69799E+00
8.46328E-01	-1.15571E+00	4.66642E+00	-8.66541E+00
4.69753E-02	-1.40935E+00	4.66547E+00	-8.63302E+00
-7.43756E-01	-1.17210E+00	4.66452E+00	-8.60084E+00
-1.25510E+00	-5.40479E-01	4.66358E+00	-8.56886E+00
-1.32047E+00	2.56871E-01	4.66262E+00	-8.53706E+00
-9.31238E-01	9.41519E-01	4.66167E+00	-8.50543E+00
-2.34862E-01	1.28229E+00	4.66072E+00	-8.47399E+00
5.20442E-01	1.17303E+00	4.65978E+00	-8.44273E+00
1.07404E+00	6.65108E-01	4.65884E+00	-8.41163E+00
1.24239E+00	-5.50716E-02	4.65790E+00	-8.38071E+00
9.79712E-01	-7.34103E-01	4.65697E+00	-8.34995E+00
3.89361E-01	-1.14052E+00	4.65605E+00	-8.31934E+00
-3.16121E-01	-1.14348E+00	4.65516E+00	-8.28890E+00
-8.91496E-01	-7.54438E-01	4.65431E+00	-8.25862E+00
-1.14352E+00	-1.18850E-01	4.65350E+00	-8.22855E+00
-9.95808E-01	5.37817E-01	4.65268E+00	-8.19868E+00
-5.11355E-01	9.89839E-01	4.65183E+00	-8.16900E+00
1.33380E-01	1.08862E+00	4.65096E+00	-8.13946E+00
7.12459E-01	8.11218E-01	4.65009E+00	-8.11006E+00
1.02944E+00	2.64357E-01	4.64925E+00	-8.08080E+00
9.83792E-01	-3.56145E-01	4.64844E+00	-8.05171E+00
6.02382E-01	-8.35443E-01	4.64765E+00	-8.02280E+00
2.63031E-02	-1.01357E+00	4.64684E+00	-7.99406E+00
-5.40974E-01	-8.38793E-01	4.64601E+00	-7.96547E+00
-9.05290E-01	-3.81925E-01	4.64518E+00	-7.93701E+00
-9.48052E-01	1.91717E-01	4.64436E+00	-7.90869E+00
-6.64549E-01	6.81907E-01	4.64357E+00	-7.88050E+00
-1.62093E-01	9.23206E-01	4.64281E+00	-7.85245E+00
3.80417E-01	8.40651E-01	4.64208E+00	-7.82456E+00
7.75761E-01	4.72518E-01	4.64136E+00	-7.79683E+00
8.92989E-01	-4.61834E-02	4.64066E+00	-7.76928E+00
7.00521E-01	-5.33014E-01	4.63995E+00	-7.74188E+00
2.73904E-01	-8.22099E-01	4.63925E+00	-7.71463E+00
-2.33399E-01	-8.20470E-01	4.63854E+00	-7.68751E+00
-6.44985E-01	-5.37714E-01	4.63783E+00	-7.66054E+00
-8.22819E-01	-7.93905E-02	4.63714E+00	-7.63370E+00
-7.13134E-01	3.91969E-01	4.63647E+00	-7.60701E+00
-3.62416E-01	7.14405E-01	4.63581E+00	-7.58047E+00
1.01672E-01	7.82007E-01	4.63515E+00	-7.55408E+00
5.16559E-01	5.79488E-01	4.63448E+00	-7.52784E+00
7.41565E-01	1.84614E-01	4.63380E+00	-7.50172E+00
7.05443E-01	-2.61323E-01	4.63313E+00	-7.47573E+00
4.28683E-01	-6.03877E-01	4.63246E+00	-7.44988E+00
1.35382E-02	-7.28898E-01	4.63181E+00	-7.42415E+00
-3.93407E-01	-6.00224E-01	4.63116E+00	-7.39856E+00
-6.52928E-01	-2.69804E-01	4.63052E+00	-7.37312E+00
-6.80632E-01	1.42871E-01	4.62988E+00	-7.34781E+00
-4.74195E-01	4.93814E-01	4.62921E+00	-7.32265E+00
-1.11613E-01	6.64650E-01	4.62853E+00	-7.29760E+00
2.77976E-01	6.02411E-01	4.62782E+00	-7.27267E+00
5.60277E-01	3.35628E-01	4.62710E+00	-7.24783E+00
6.41814E-01	-3.79403E-02	4.62639E+00	-7.22308E+00
5.00848E-01	-3.86951E-01	4.62569E+00	-7.19842E+00
1.92578E-01	-5.92541E-01	4.62503E+00	-7.17387E+00
-1.72164E-01	-5.88680E-01	4.62438E+00	-7.14944E+00
-4.66616E-01	-3.83171E-01	4.62376E+00	-7.12512E+00
-5.92027E-01	-5.27193E-02	4.62316E+00	-7.10092E+00
-5.10665E-01	2.85607E-01	4.62258E+00	-7.07684E+00
-2.56790E-01	5.15578E-01	4.62203E+00	-7.05289E+00
7.72480E-02	5.61724E-01	4.62148E+00	-7.02907E+00
3.74478E-01	4.13913E-01	4.62094E+00	-7.00538E+00
5.34164E-01	1.28806E-01	4.62039E+00	-6.98183E+00
5.05828E-01	-1.91631E-01	4.61982E+00	-6.95839E+00
3.04997E-01	-4.36477E-01	4.61925E+00	-6.93504E+00
5.86950E-03	-5.24149E-01	4.61868E+00	-6.91179E+00
-2.86042E-01	-4.29475E-01	4.61813E+00	-6.88863E+00
-4.70885E-01	-1.90527E-01	4.61762E+00	-6.86559E+00
-4.88617E-01	1.06333E-01	4.61713E+00	-6.84270E+00
-3.38328E-01	3.57567E-01	4.61663E+00	-6.81994E+00
-7.67261E-02	4.78475E-01	4.61610E+00	-6.79731E+00
2.03083E-01	4.31648E-01	4.61554E+00	-6.77478E+00
4.04619E-01	2.38346E-01	4.61496E+00	-6.75235E+00
4.61263E-01	-3.06818E-02	4.61436E+00	-6.72999E+00
3.58058E-01	-2.80873E-01	4.61376E+00	-6.70771E+00
