jMRUI Data Textfile
 
Filename: PE.txt
 
PointsInDataset: 2048
DatasetsInFile: 1
SamplingInterval: 5.00000E-01
ZeroOrderPhase: 0E0
BeginTime: 0E0
TransmitterFrequency: 1.27740E+08
MagneticField: 0E0
TypeOfNucleus: 0E0
NameOfPatient: 
DateOfExperiment: 
Spectrometer: Vespa-Simulation
AdditionalInfo: see 'readme' file for Vespa-Simulation output synopsis
 
  
Signal and FFT 
sig(real)	sig(imag)	fft(real)	fft(imag)
Signal 1 out of 1 in file
2.41591E+00	8.72545E-05	1.54449E+00	-6.09113E+00
2.12391E+00	-1.00689E+00	1.53759E+00	-6.03696E+00
1.41397E+00	-1.72953E+00	1.53092E+00	-5.98377E+00
4.97618E-01	-2.01143E+00	1.52445E+00	-5.93155E+00
-3.72542E-01	-1.83391E+00	1.51819E+00	-5.88026E+00
-9.83423E-01	-1.31113E+00	1.51211E+00	-5.82988E+00
-1.22367E+00	-6.43002E-01	1.50622E+00	-5.78039E+00
-1.10824E+00	-4.41584E-02	1.50050E+00	-5.73174E+00
-7.59947E-01	3.26028E-01	1.49495E+00	-5.68394E+00
-3.57203E-01	4.09150E-01	1.48957E+00	-5.63694E+00
-6.78032E-02	2.55893E-01	1.48434E+00	-5.59074E+00
7.88339E-03	-3.39177E-03	1.47927E+00	-5.54530E+00
-1.34075E-01	-2.12909E-01	1.47434E+00	-5.50062E+00
-4.07861E-01	-2.50237E-01	1.46955E+00	-5.45666E+00
-6.75509E-01	-6.93138E-02	1.46489E+00	-5.41342E+00
-8.00501E-01	2.86111E-01	1.46036E+00	-5.37087E+00
-6.97914E-01	7.01353E-01	1.45596E+00	-5.32899E+00
-3.64132E-01	1.03356E+00	1.45167E+00	-5.28778E+00
1.22921E-01	1.16244E+00	1.44751E+00	-5.24721E+00
6.31526E-01	1.03125E+00	1.44345E+00	-5.20726E+00
1.02090E+00	6.64551E-01	1.43950E+00	-5.16793E+00
1.18708E+00	1.58217E-01	1.43565E+00	-5.12919E+00
1.09452E+00	-3.53530E-01	1.43191E+00	-5.09104E+00
7.83753E-01	-7.41772E-01	1.42825E+00	-5.05345E+00
3.54159E-01	-9.22157E-01	1.42469E+00	-5.01642E+00
-7.08915E-02	-8.77231E-01	1.42122E+00	-4.97993E+00
-3.83859E-01	-6.55725E-01	1.41784E+00	-4.94398E+00
-5.24443E-01	-3.50810E-01	1.41454E+00	-4.90854E+00
-4.92990E-01	-6.60968E-02	1.41133E+00	-4.87360E+00
-3.43038E-01	1.18437E-01	1.40819E+00	-4.83916E+00
-1.57254E-01	1.69392E-01	1.40512E+00	-4.80521E+00
-1.62325E-02	1.05128E-01	1.40213E+00	-4.77172E+00
2.88229E-02	-1.68801E-02	1.39921E+00	-4.73870E+00
-2.92815E-02	-1.24704E-01	1.39636E+00	-4.70613E+00
-1.55606E-01	-1.59241E-01	1.39358E+00	-4.67400E+00
-2.89369E-01	-9.46126E-02	1.39086E+00	-4.64231E+00
-3.67908E-01	5.46639E-02	1.38821E+00	-4.61104E+00
-3.49477E-01	2.41107E-01	1.38562E+00	-4.58019E+00
-2.27247E-01	4.02585E-01	1.38308E+00	-4.54975E+00
-3.03749E-02	4.84529E-01	1.38059E+00	-4.51970E+00
1.87165E-01	4.58128E-01	1.37817E+00	-4.49004E+00
3.65427E-01	3.28795E-01	1.37579E+00	-4.46076E+00
4.57995E-01	1.32769E-01	1.37347E+00	-4.43185E+00
4.45777E-01	-7.61033E-02	1.37120E+00	-4.40331E+00
3.40917E-01	-2.44174E-01	1.36898E+00	-4.37513E+00
1.80450E-01	-3.34309E-01	1.36681E+00	-4.34730E+00
1.27198E-02	-3.35410E-01	1.36468E+00	-4.31982E+00
-1.18430E-01	-2.62852E-01	1.36259E+00	-4.29267E+00
-1.86269E-01	-1.50532E-01	1.36055E+00	-4.26585E+00
-1.86946E-01	-3.80747E-02	1.35855E+00	-4.23936E+00
-1.37317E-01	4.21922E-02	1.35660E+00	-4.21318E+00
-6.64737E-02	7.41873E-02	1.35469E+00	-4.18732E+00
-4.50537E-03	6.06122E-02	1.35282E+00	-4.16177E+00
2.74621E-02	1.90155E-02	1.35098E+00	-4.13652E+00
2.28760E-02	-2.64382E-02	1.34918E+00	-4.11157E+00
-1.02810E-02	-5.42185E-02	1.34741E+00	-4.08690E+00
-5.43876E-02	-5.24840E-02	1.34567E+00	-4.06252E+00
-8.96422E-02	-2.18849E-02	1.34398E+00	-4.03842E+00
-1.01244E-01	2.62437E-02	1.34231E+00	-4.01459E+00
-8.39125E-02	7.50511E-02	1.34068E+00	-3.99103E+00
-4.26204E-02	1.08501E-01	1.33908E+00	-3.96773E+00
1.01892E-02	1.16599E-01	1.33751E+00	-3.94470E+00
5.94424E-02	9.79228E-02	1.33597E+00	-3.92192E+00
9.24589E-02	5.90364E-02	1.33445E+00	-3.89939E+00
1.02456E-01	1.14714E-02	1.33297E+00	-3.87710E+00
8.96832E-02	-3.23514E-02	1.33151E+00	-3.85505E+00
6.02249E-02	-6.27747E-02	1.33009E+00	-3.83324E+00
2.33069E-02	-7.50254E-02	1.32869E+00	-3.81167E+00
-1.17366E-02	-6.95072E-02	1.32733E+00	-3.79033E+00
-3.78207E-02	-5.05669E-02	1.32598E+00	-3.76922E+00
-5.12501E-02	-2.45144E-02	1.32466E+00	-3.74834E+00
-5.16348E-02	2.27379E-03	1.32335E+00	-3.72768E+00
-4.10458E-02	2.46365E-02	1.32207E+00	-3.70722E+00
-2.29458E-02	3.91526E-02	1.32080E+00	-3.68698E+00
-1.34351E-03	4.41064E-02	1.31956E+00	-3.66693E+00
1.97055E-02	3.92755E-02	1.31834E+00	-3.64709E+00
3.63803E-02	2.57956E-02	1.31715E+00	-3.62745E+00
4.54171E-02	6.15153E-03	1.31598E+00	-3.60801E+00
4.46283E-02	-1.58764E-02	1.31483E+00	-3.58877E+00
3.35802E-02	-3.55913E-02	1.31370E+00	-3.56972E+00
1.41358E-02	-4.82348E-02	1.31259E+00	-3.55086E+00
-9.51454E-03	-5.02319E-02	1.31149E+00	-3.53217E+00
-3.15800E-02	-4.04469E-02	1.31043E+00	-3.51368E+00
-4.61461E-02	-2.09459E-02	1.30938E+00	-3.49537E+00
-4.90090E-02	3.19253E-03	1.30834E+00	-3.47724E+00
-3.92319E-02	2.51388E-02	1.30731E+00	-3.45929E+00
-1.97949E-02	3.83859E-02	1.30630E+00	-3.44150E+00
3.06056E-03	3.89664E-02	1.30530E+00	-3.42388E+00
2.17237E-02	2.70103E-02	1.30432E+00	-3.40642E+00
2.97682E-02	6.98568E-03	1.30336E+00	-3.38912E+00
2.43126E-02	-1.35984E-02	1.30242E+00	-3.37199E+00
7.28401E-03	-2.66945E-02	1.30149E+00	-3.35502E+00
-1.49727E-02	-2.66044E-02	1.30057E+00	-3.33820E+00
-3.37122E-02	-1.22136E-02	1.29966E+00	-3.32153E+00
-4.08248E-02	1.22788E-02	1.29878E+00	-3.30501E+00
-3.18419E-02	3.85197E-02	1.29792E+00	-3.28865E+00
-7.81865E-03	5.67254E-02	1.29707E+00	-3.27244E+00
2.46491E-02	5.90992E-02	1.29623E+00	-3.25638E+00
5.53855E-02	4.27371E-02	1.29540E+00	-3.24047E+00
7.39761E-02	1.09542E-02	1.29458E+00	-3.22469E+00
7.33466E-02	-2.74937E-02	1.29376E+00	-3.20906E+00
5.23537E-02	-6.11288E-02	1.29296E+00	-3.19355E+00
1.64206E-02	-7.95109E-02	1.29217E+00	-3.17818E+00
-2.40682E-02	-7.67669E-02	1.29139E+00	-3.16294E+00
-5.70892E-02	-5.36455E-02	1.29063E+00	-3.14783E+00
-7.29404E-02	-1.73722E-02	1.28988E+00	-3.13285E+00
-6.74628E-02	2.07075E-02	1.28915E+00	-3.11800E+00
-4.34005E-02	4.88797E-02	1.28842E+00	-3.10328E+00
-9.43571E-03	5.89619E-02	1.28771E+00	-3.08868E+00
2.27959E-02	4.89875E-02	1.28700E+00	-3.07421E+00
4.26811E-02	2.37551E-02	1.28631E+00	-3.05986E+00
4.42055E-02	-6.93606E-03	1.28562E+00	-3.04563E+00
2.79268E-02	-3.17497E-02	1.28495E+00	-3.03151E+00
6.50581E-04	-4.17650E-02	1.28428E+00	-3.01752E+00
-2.70565E-02	-3.35444E-02	1.28362E+00	-3.00363E+00
-4.46209E-02	-1.02572E-02	1.28297E+00	-2.98987E+00
-4.51879E-02	1.95051E-02	1.28233E+00	-2.97621E+00
-2.80069E-02	4.48021E-02	1.28170E+00	-2.96266E+00
1.33119E-03	5.61963E-02	1.28107E+00	-2.94923E+00
3.28680E-02	4.90630E-02	1.28046E+00	-2.93589E+00
5.57546E-02	2.51959E-02	1.27985E+00	-2.92267E+00
6.20132E-02	-7.82846E-03	1.27925E+00	-2.90955E+00
4.92657E-02	-3.92655E-02	1.27866E+00	-2.89653E+00
2.15207E-02	-5.88911E-02	1.27808E+00	-2.88361E+00
-1.22400E-02	-6.04633E-02	1.27751E+00	-2.87080E+00
-4.11571E-02	-4.37775E-02	1.27695E+00	-2.85808E+00
-5.61597E-02	-1.46349E-02	1.27639E+00	-2.84547E+00
-5.29696E-02	1.72215E-02	1.27584E+00	-2.83296E+00
-3.34082E-02	4.14594E-02	1.27529E+00	-2.82054E+00
-4.61552E-03	5.06220E-02	1.27475E+00	-2.80821E+00
2.35175E-02	4.25273E-02	1.27422E+00	-2.79597E+00
4.17395E-02	2.08049E-02	1.27370E+00	-2.78383E+00
4.45254E-02	-6.53639E-03	1.27319E+00	-2.77178E+00
3.17832E-02	-2.99779E-02	1.27268E+00	-2.75982E+00
8.66025E-03	-4.17639E-02	1.27217E+00	-2.74795E+00
-1.64195E-02	-3.84518E-02	1.27167E+00	-2.73617E+00
-3.47547E-02	-2.18967E-02	1.27117E+00	-2.72447E+00
-4.03402E-02	1.60445E-03	1.27068E+00	-2.71285E+00
-3.18020E-02	2.36581E-02	1.27021E+00	-2.70132E+00
-1.26688E-02	3.67190E-02	1.26974E+00	-2.68988E+00
1.00358E-02	3.66449E-02	1.26928E+00	-2.67852E+00
2.83427E-02	2.39735E-02	1.26882E+00	-2.66724E+00
3.61041E-02	3.54939E-03	1.26836E+00	-2.65605E+00
3.10247E-02	-1.73058E-02	1.26790E+00	-2.64493E+00
1.52946E-02	-3.13925E-02	1.26745E+00	-2.63389E+00
-5.34047E-03	-3.40878E-02	1.26701E+00	-2.62293E+00
-2.36667E-02	-2.48078E-02	1.26658E+00	-2.61204E+00
-3.35109E-02	-7.04929E-03	1.26616E+00	-2.60123E+00
-3.17817E-02	1.29608E-02	1.26574E+00	-2.59050E+00
-1.93775E-02	2.84755E-02	1.26532E+00	-2.57985E+00
-7.08495E-04	3.45088E-02	1.26490E+00	-2.56926E+00
1.79364E-02	2.94151E-02	1.26449E+00	-2.55875E+00
3.05749E-02	1.52640E-02	1.26409E+00	-2.54831E+00
3.34798E-02	-3.03924E-03	1.26369E+00	-2.53794E+00
2.62810E-02	-1.95314E-02	1.26329E+00	-2.52764E+00
1.18764E-02	-2.92127E-02	1.26291E+00	-2.51742E+00
-4.73506E-03	-2.96180E-02	1.26253E+00	-2.50726E+00
-1.82393E-02	-2.14415E-02	1.26215E+00	-2.49717E+00
-2.47702E-02	-8.06769E-03	1.26177E+00	-2.48715E+00
-2.30605E-02	5.75550E-03	1.26139E+00	-2.47720E+00
-1.46376E-02	1.56006E-02	1.26102E+00	-2.46731E+00
-3.07113E-03	1.87897E-02	1.26065E+00	-2.45748E+00
7.40079E-03	1.51312E-02	1.26029E+00	-2.44772E+00
1.33533E-02	6.75267E-03	1.25994E+00	-2.43802E+00
1.32542E-02	-2.83311E-03	1.25960E+00	-2.42838E+00
7.80815E-03	-1.00491E-02	1.25925E+00	-2.41881E+00
-4.88446E-04	-1.24797E-02	1.25891E+00	-2.40931E+00
-8.36557E-03	-9.59284E-03	1.25857E+00	-2.39987E+00
-1.29635E-02	-2.75411E-03	1.25823E+00	-2.39048E+00
-1.27766E-02	5.40323E-03	1.25789E+00	-2.38115E+00
-8.04729E-03	1.19837E-02	1.25756E+00	-2.37188E+00
-5.32411E-04	1.48297E-02	1.25723E+00	-2.36266E+00
7.21979E-03	1.31765E-02	1.25691E+00	-2.35351E+00
1.27854E-02	7.77544E-03	1.25660E+00	-2.34442E+00
1.46455E-02	4.95054E-04	1.25628E+00	-2.33538E+00
1.25754E-02	-6.39857E-03	1.25597E+00	-2.32640E+00
7.56545E-03	-1.10117E-02	1.25565E+00	-2.31748E+00
1.35139E-03	-1.23703E-02	1.25535E+00	-2.30860E+00
-4.23328E-03	-1.05905E-02	1.25504E+00	-2.29978E+00
-7.83867E-03	-6.66945E-03	1.25475E+00	-2.29102E+00
-8.92598E-03	-2.02247E-03	1.25445E+00	-2.28231E+00
-7.77103E-03	2.03046E-03	1.25416E+00	-2.27365E+00
-5.19905E-03	4.64682E-03	1.25387E+00	-2.26505E+00
-2.19620E-03	5.59636E-03	1.25358E+00	-2.25649E+00
4.37994E-04	5.15944E-03	1.25329E+00	-2.24799E+00
2.27798E-03	3.87341E-03	1.25302E+00	-2.23953E+00
3.26538E-03	2.26374E-03	1.25274E+00	-2.23113E+00
3.56050E-03	6.72977E-04	1.25247E+00	-2.22278E+00
3.35547E-03	-7.62683E-04	1.25220E+00	-2.21448E+00
2.75033E-03	-2.01786E-03	1.25193E+00	-2.20623E+00
1.74595E-03	-3.04235E-03	1.25166E+00	-2.19802E+00
