jMRUI Data Textfile
 
Filename: Glu.txt
 
PointsInDataset: 2048
DatasetsInFile: 1
SamplingInterval: 5.00000E-01
ZeroOrderPhase: 0E0
BeginTime: 0E0
TransmitterFrequency: 1.27740E+08
MagneticField: 0E0
TypeOfNucleus: 0E0
NameOfPatient: 
DateOfExperiment: 
Spectrometer: Vespa-Simulation
AdditionalInfo: see 'readme' file for Vespa-Simulation output synopsis
 
  
Signal and FFT 
sig(real)	sig(imag)	fft(real)	fft(imag)
Signal 1 out of 1 in file
3.89034E+00	-1.09411E-01	1.98126E+00	-4.78373E+00
2.25869E+00	-2.96148E+00	1.97979E+00	-4.75857E+00
-8.78161E-01	-3.26010E+00	1.97836E+00	-4.73370E+00
-2.75800E+00	-9.84592E-01	1.97696E+00	-4.70910E+00
-1.91436E+00	1.61748E+00	1.97560E+00	-4.68478E+00
5.78958E-01	2.18333E+00	1.97428E+00	-4.66072E+00
2.23890E+00	3.75000E-01	1.97299E+00	-4.63691E+00
1.51519E+00	-1.94737E+00	1.97174E+00	-4.61336E+00
-8.64421E-01	-2.55626E+00	1.97052E+00	-4.59007E+00
-2.70079E+00	-8.94558E-01	1.96933E+00	-4.56701E+00
-2.39580E+00	1.53867E+00	1.96818E+00	-4.54420E+00
-3.23960E-01	2.67207E+00	1.96705E+00	-4.52163E+00
1.66646E+00	1.72571E+00	1.96595E+00	-4.49929E+00
2.00388E+00	-2.42586E-01	1.96488E+00	-4.47718E+00
7.15552E-01	-1.45968E+00	1.96383E+00	-4.45528E+00
-7.99285E-01	-1.05333E+00	1.96281E+00	-4.43361E+00
-1.16237E+00	3.18407E-01	1.96181E+00	-4.41215E+00
-2.05887E-01	1.25172E+00	1.96084E+00	-4.39090E+00
1.05413E+00	9.19517E-01	1.95990E+00	-4.36985E+00
1.46445E+00	-2.96965E-01	1.95898E+00	-4.34902E+00
7.40109E-01	-1.31117E+00	1.95808E+00	-4.32838E+00
-4.31359E-01	-1.35406E+00	1.95721E+00	-4.30795E+00
-1.12243E+00	-5.52802E-01	1.95635E+00	-4.28770E+00
-9.59521E-01	3.44277E-01	1.95551E+00	-4.26764E+00
-2.98226E-01	6.95290E-01	1.95470E+00	-4.24777E+00
2.32367E-01	4.40220E-01	1.95391E+00	-4.22808E+00
2.90468E-01	-9.33518E-03	1.95314E+00	-4.20857E+00
4.93035E-04	-2.24407E-01	1.95239E+00	-4.18924E+00
-2.86980E-01	-9.01680E-02	1.95165E+00	-4.17009E+00
-3.29849E-01	2.13242E-01	1.95093E+00	-4.15111E+00
-1.25446E-01	4.42074E-01	1.95023E+00	-4.13230E+00
1.81581E-01	4.67524E-01	1.94954E+00	-4.11365E+00
4.38307E-01	2.92375E-01	1.94888E+00	-4.09517E+00
5.40499E-01	-9.21839E-03	1.94823E+00	-4.07685E+00
4.34708E-01	-3.22594E-01	1.94760E+00	-4.05869E+00
1.43767E-01	-5.03034E-01	1.94698E+00	-4.04068E+00
-1.96566E-01	-4.37952E-01	1.94638E+00	-4.02283E+00
-3.80741E-01	-1.53070E-01	1.94579E+00	-4.00514E+00
-2.82650E-01	1.53746E-01	1.94521E+00	-3.98759E+00
8.19033E-03	2.40762E-01	1.94465E+00	-3.97018E+00
2.23713E-01	3.59446E-02	1.94410E+00	-3.95292E+00
1.40205E-01	-2.67225E-01	1.94357E+00	-3.93580E+00
-2.01630E-01	-3.57420E-01	1.94304E+00	-3.91883E+00
-5.02223E-01	-8.99346E-02	1.94253E+00	-3.90200E+00
-4.59847E-01	3.55437E-01	1.94203E+00	-3.88530E+00
-5.52346E-02	6.11243E-01	1.94154E+00	-3.86874E+00
4.07716E-01	4.47451E-01	1.94106E+00	-3.85231E+00
5.59919E-01	-1.18763E-02	1.94059E+00	-3.83600E+00
2.95324E-01	-3.89069E-01	1.94013E+00	-3.81983E+00
-1.33622E-01	-3.86380E-01	1.93968E+00	-3.80378E+00
-3.44614E-01	-4.84173E-02	1.93925E+00	-3.78785E+00
-1.68780E-01	2.86993E-01	1.93882E+00	-3.77205E+00
2.05589E-01	3.01069E-01	1.93841E+00	-3.75637E+00
4.15180E-01	-1.98272E-02	1.93800E+00	-3.74081E+00
2.55135E-01	-3.82473E-01	1.93760E+00	-3.72537E+00
-1.42591E-01	-4.60584E-01	1.93721E+00	-3.71005E+00
-4.39557E-01	-1.86241E-01	1.93683E+00	-3.69484E+00
-3.97861E-01	2.02642E-01	1.93646E+00	-3.67974E+00
-8.06383E-02	3.87106E-01	1.93609E+00	-3.66475E+00
2.24606E-01	2.47515E-01	1.93574E+00	-3.64987E+00
2.72013E-01	-5.15289E-02	1.93539E+00	-3.63510E+00
6.39960E-02	-2.30511E-01	1.93505E+00	-3.62044E+00
-1.77245E-01	-1.47888E-01	1.93473E+00	-3.60588E+00
-2.26118E-01	9.23740E-02	1.93441E+00	-3.59142E+00
-5.01501E-02	2.57852E-01	1.93410E+00	-3.57708E+00
1.82496E-01	2.03544E-01	1.93379E+00	-3.56284E+00
2.70200E-01	-1.22003E-02	1.93349E+00	-3.54869E+00
1.54335E-01	-2.00637E-01	1.93319E+00	-3.53465E+00
-4.85700E-02	-2.18417E-01	1.93290E+00	-3.52070E+00
-1.68187E-01	-8.15397E-02	1.93262E+00	-3.50685E+00
-1.30161E-01	7.19085E-02	1.93234E+00	-3.49308E+00
-1.99724E-03	1.16415E-01	1.93208E+00	-3.47941E+00
8.81035E-02	4.12568E-02	1.93182E+00	-3.46584E+00
6.97564E-02	-6.17065E-02	1.93158E+00	-3.45236E+00
-2.12212E-02	-9.47805E-02	1.93133E+00	-3.43898E+00
-9.33256E-02	-3.82050E-02	1.93109E+00	-3.42569E+00
-8.74079E-02	4.81441E-02	1.93086E+00	-3.41249E+00
-1.98698E-02	9.07369E-02	1.93062E+00	-3.39937E+00
4.67217E-02	6.61150E-02	1.93039E+00	-3.38633E+00
6.51663E-02	8.65858E-03	1.93017E+00	-3.37338E+00
3.77723E-02	-3.16384E-02	1.92996E+00	-3.36051E+00
6.38406E-04	-3.34973E-02	1.92975E+00	-3.34773E+00
-1.57565E-02	-1.24295E-02	1.92955E+00	-3.33503E+00
-9.33395E-03	4.46912E-03	1.92935E+00	-3.32241E+00
2.46665E-03	5.42105E-03	1.92916E+00	-3.30988E+00
5.66191E-03	-1.91465E-03	1.92897E+00	-3.29742E+00
1.22120E-03	-5.66669E-03	1.92878E+00	-3.28504E+00
-2.25667E-03	-3.50576E-03	1.92860E+00	-3.27274E+00
-1.36119E-03	-1.42652E-03	1.92843E+00	-3.26051E+00
-6.89572E-04	-3.14482E-03	1.92826E+00	-3.24836E+00
-4.65248E-03	-4.63262E-03	1.92810E+00	-3.23629E+00
-9.99708E-03	1.55319E-04	1.92794E+00	-3.22430E+00
-8.56945E-03	1.01860E-02	1.92778E+00	-3.21238E+00
2.82657E-03	1.62623E-02	1.92763E+00	-3.20053E+00
1.68535E-02	9.89955E-03	1.92748E+00	-3.18875E+00
2.11153E-02	-7.06278E-03	1.92733E+00	-3.17704E+00
9.73136E-03	-2.23594E-02	1.92719E+00	-3.16540E+00
-1.02814E-02	-2.34363E-02	1.92705E+00	-3.15384E+00
-2.41589E-02	-8.55379E-03	1.92691E+00	-3.14234E+00
-2.16023E-02	1.12761E-02	1.92678E+00	-3.13091E+00
-5.32946E-03	2.12241E-02	1.92665E+00	-3.11955E+00
1.12472E-02	1.47232E-02	1.92652E+00	-3.10825E+00
1.50668E-02	-1.38571E-03	1.92640E+00	-3.09702E+00
4.00381E-03	-1.26575E-02	1.92628E+00	-3.08585E+00
-1.14836E-02	-8.92114E-03	1.92616E+00	-3.07474E+00
-1.68644E-02	7.26824E-03	1.92605E+00	-3.06371E+00
-5.49688E-03	2.23431E-02	1.92594E+00	-3.05273E+00
1.54137E-02	2.24505E-02	1.92583E+00	-3.04182E+00
2.98725E-02	4.95076E-03	1.92573E+00	-3.03097E+00
2.56710E-02	-1.85864E-02	1.92562E+00	-3.02018E+00
4.67424E-03	-3.08954E-02	1.92552E+00	-3.00945E+00
-1.78542E-02	-2.28052E-02	1.92542E+00	-2.99878E+00
-2.51427E-02	-1.16794E-03	1.92533E+00	-2.98816E+00
-1.27701E-02	1.62355E-02	1.92524E+00	-2.97761E+00
7.24765E-03	1.53698E-02	1.92516E+00	-2.96712E+00
1.63438E-02	-1.87528E-03	1.92507E+00	-2.95668E+00
5.51116E-03	-1.88258E-02	1.92498E+00	-2.94630E+00
-1.62343E-02	-1.83208E-02	1.92490E+00	-2.93597E+00
-2.90473E-02	1.79281E-03	1.92482E+00	-2.92570E+00
-1.95893E-02	2.57908E-02	1.92475E+00	-2.91548E+00
6.52597E-03	3.31504E-02	1.92468E+00	-2.90532E+00
2.86810E-02	1.66466E-02	1.92461E+00	-2.89521E+00
2.88588E-02	-1.06159E-02	1.92454E+00	-2.88516E+00
7.65646E-03	-2.60977E-02	1.92448E+00	-2.87517E+00
-1.58348E-02	-1.75503E-02	1.92442E+00	-2.86522E+00
-2.07636E-02	5.94921E-03	1.92435E+00	-2.85533E+00
-3.22676E-03	2.19305E-02	1.92429E+00	-2.84549E+00
1.99772E-02	1.47759E-02	1.92423E+00	-2.83569E+00
2.63862E-02	-9.84583E-03	1.92418E+00	-2.82595E+00
8.43420E-03	-2.97012E-02	1.92413E+00	-2.81626E+00
-1.91739E-02	-2.60170E-02	1.92408E+00	-2.80662E+00
-3.23179E-02	-7.92631E-04	1.92403E+00	-2.79703E+00
-1.92213E-02	2.45065E-02	1.92398E+00	-2.78748E+00
8.66073E-03	2.80407E-02	1.92393E+00	-2.77799E+00
2.67297E-02	7.27675E-03	1.92388E+00	-2.76854E+00
1.93239E-02	-1.86869E-02	1.92384E+00	-2.75913E+00
-6.24750E-03	-2.63595E-02	1.92380E+00	-2.74978E+00
-2.64652E-02	-9.00603E-03	1.92377E+00	-2.74047E+00
-2.29291E-02	1.74951E-02	1.92373E+00	-2.73121E+00
1.18951E-03	2.92118E-02	1.92370E+00	-2.72200E+00
2.43129E-02	1.57285E-02	1.92366E+00	-2.71283E+00
2.60304E-02	-1.07959E-02	1.92362E+00	-2.70370E+00
5.17518E-03	-2.68635E-02	1.92359E+00	-2.69462E+00
-1.96003E-02	-1.85791E-02	1.92355E+00	-2.68557E+00
-2.66248E-02	6.50337E-03	1.92353E+00	-2.67657E+00
-9.97862E-03	2.65885E-02	1.92351E+00	-2.66761E+00
1.60743E-02	2.47070E-02	1.92349E+00	-2.65870E+00
2.99391E-02	2.72762E-03	1.92347E+00	-2.64984E+00
2.08963E-02	-2.11631E-02	1.92345E+00	-2.64102E+00
-2.81979E-03	-2.82086E-02	1.92342E+00	-2.63224E+00
-2.18419E-02	-1.41670E-02	1.92340E+00	-2.62350E+00
-2.17720E-02	8.28579E-03	1.92337E+00	-2.61479E+00
-4.18035E-03	2.06086E-02	1.92335E+00	-2.60613E+00
1.55102E-02	1.31868E-02	1.92334E+00	-2.59750E+00
2.05650E-02	-7.56867E-03	1.92333E+00	-2.58891E+00
5.88700E-03	-2.45192E-02	1.92332E+00	-2.58036E+00
-1.80513E-02	-2.29522E-02	1.92332E+00	-2.57185E+00
-3.28370E-02	-1.90535E-03	1.92332E+00	-2.56339E+00
-2.58329E-02	2.44592E-02	1.92332E+00	-2.55497E+00
-2.47959E-04	3.67624E-02	1.92331E+00	-2.54659E+00
2.61553E-02	2.50242E-02	1.92330E+00	-2.53825E+00
3.38018E-02	-2.71525E-03	1.92329E+00	-2.52994E+00
1.68512E-02	-2.52653E-02	1.92327E+00	-2.52166E+00
-1.07588E-02	-2.45052E-02	1.92326E+00	-2.51341E+00
-2.51835E-02	-9.62420E-04	1.92326E+00	-2.50519E+00
-1.22881E-02	2.47339E-02	1.92327E+00	-2.49702E+00
1.87786E-02	2.78491E-02	1.92328E+00	-2.48889E+00
4.10090E-02	1.22455E-03	1.92329E+00	-2.48080E+00
3.16658E-02	-3.60824E-02	1.92329E+00	-2.47275E+00
-6.70622E-03	-5.27385E-02	1.92329E+00	-2.46473E+00
-4.56525E-02	-3.17734E-02	1.92329E+00	-2.45674E+00
-5.34551E-02	1.28820E-02	1.92329E+00	-2.44878E+00
-2.28729E-02	4.60572E-02	1.92330E+00	-2.44085E+00
2.07628E-02	4.08796E-02	1.92331E+00	-2.43296E+00
4.01157E-02	3.01781E-03	1.92332E+00	-2.42511E+00
1.85072E-02	-3.27722E-02	1.92333E+00	-2.41729E+00
-2.41124E-02	-3.25260E-02	1.92334E+00	-2.40950E+00
-4.74355E-02	6.13092E-03	1.92334E+00	-2.40175E+00
-2.63271E-02	5.01457E-02	1.92335E+00	-2.39402E+00
2.55645E-02	5.89972E-02	1.92336E+00	-2.38633E+00
6.59635E-02	2.06803E-02	1.92338E+00	-2.37867E+00
6.01320E-02	-3.62833E-02	1.92339E+00	-2.37104E+00
1.16030E-02	-6.64011E-02	1.92340E+00	-2.36344E+00
-4.00047E-02	-4.63246E-02	1.92342E+00	-2.35587E+00
-5.28806E-02	4.70732E-03	1.92344E+00	-2.34834E+00
-1.92215E-02	4.14928E-02	1.92345E+00	-2.34083E+00
2.81064E-02	3.23027E-02	1.92347E+00	-2.33335E+00
4.44925E-02	-1.33537E-02	1.92349E+00	-2.32591E+00
1.28753E-02	-5.30273E-02	1.92351E+00	-2.31849E+00
-4.09822E-02	-4.85118E-02	1.92354E+00	-2.31111E+00
