jMRUI Data Textfile
 
Filename: NAA.txt
 
PointsInDataset: 2048
DatasetsInFile: 1
SamplingInterval: 5.00000E-01
ZeroOrderPhase: 0E0
BeginTime: 0E0
TransmitterFrequency: 1.27740E+08
MagneticField: 0E0
TypeOfNucleus: 0E0
NameOfPatient: 
DateOfExperiment: 
Spectrometer: Vespa-Simulation
AdditionalInfo: see 'readme' file for Vespa-Simulation output synopsis
 
  
Signal and FFT 
sig(real)	sig(imag)	fft(real)	fft(imag)
Signal 1 out of 1 in file
5.57172E+00	-1.20734E-01	3.75890E+00	-6.63106E+00
2.84235E+00	-2.91194E+00	3.71385E+00	-6.55165E+00
-2.10923E+00	-3.26515E+00	3.67138E+00	-6.47456E+00
-4.17620E+00	-9.23577E-01	3.63134E+00	-6.39961E+00
-1.64203E+00	2.04437E+00	3.59362E+00	-6.32667E+00
2.35750E+00	2.92329E+00	3.55805E+00	-6.25566E+00
3.64076E+00	8.63813E-01	3.52451E+00	-6.18648E+00
1.40763E+00	-2.13334E+00	3.49287E+00	-6.11905E+00
-1.48954E+00	-3.08567E+00	3.46299E+00	-6.05329E+00
-2.09795E+00	-1.12288E+00	3.43478E+00	-5.98914E+00
-3.82062E-01	1.52304E+00	3.40812E+00	-5.92652E+00
1.33906E+00	1.94603E+00	3.38291E+00	-5.86538E+00
1.24967E+00	-1.68595E-01	3.35907E+00	-5.80566E+00
-2.21438E-01	-2.20986E+00	3.33652E+00	-5.74731E+00
-1.29841E+00	-1.72064E+00	3.31517E+00	-5.69029E+00
-9.01893E-01	6.90701E-01	3.29494E+00	-5.63456E+00
4.10690E-01	2.08274E+00	3.27577E+00	-5.58006E+00
1.22747E+00	7.14319E-01	3.25758E+00	-5.52675E+00
6.98070E-01	-1.84046E+00	3.24031E+00	-5.47460E+00
-7.31108E-01	-2.53098E+00	3.22391E+00	-5.42356E+00
-1.73407E+00	-4.29750E-01	3.20832E+00	-5.37360E+00
-1.27299E+00	2.16753E+00	3.19348E+00	-5.32467E+00
3.86342E-01	2.38746E+00	3.17934E+00	-5.27674E+00
1.73621E+00	2.67321E-02	3.16586E+00	-5.22976E+00
1.35627E+00	-2.30778E+00	3.15301E+00	-5.18369E+00
-5.70501E-01	-2.16210E+00	3.14076E+00	-5.13851E+00
-2.18896E+00	1.63709E-01	3.12908E+00	-5.09419E+00
-1.75233E+00	2.15698E+00	3.11792E+00	-5.05071E+00
4.39173E-01	1.88799E+00	3.10725E+00	-5.00803E+00
2.15842E+00	-1.15676E-01	3.09704E+00	-4.96613E+00
1.56451E+00	-1.70761E+00	3.08727E+00	-4.92497E+00
-7.31903E-01	-1.42977E+00	3.07790E+00	-4.88452E+00
-2.24924E+00	2.05653E-01	3.06893E+00	-4.84476E+00
-1.34760E+00	1.49747E+00	3.06034E+00	-4.80567E+00
9.48569E-01	1.29350E+00	3.05210E+00	-4.76723E+00
2.10969E+00	-5.24673E-02	3.04420E+00	-4.72940E+00
9.33499E-01	-1.18986E+00	3.03663E+00	-4.69217E+00
-1.17202E+00	-1.07517E+00	3.02937E+00	-4.65554E+00
-1.85726E+00	1.14443E-01	3.02241E+00	-4.61947E+00
-4.66269E-01	1.18889E+00	3.01573E+00	-4.58396E+00
1.34958E+00	1.07273E+00	3.00931E+00	-4.54899E+00
1.59645E+00	-1.38227E-01	3.00314E+00	-4.51454E+00
1.30775E-01	-1.21650E+00	2.99722E+00	-4.48060E+00
-1.33982E+00	-1.01530E+00	2.99152E+00	-4.44716E+00
-1.25208E+00	2.96128E-01	2.98604E+00	-4.41419E+00
1.65283E-01	1.32429E+00	2.98075E+00	-4.38169E+00
1.30986E+00	9.13824E-01	2.97566E+00	-4.34964E+00
1.01388E+00	-5.41799E-01	2.97074E+00	-4.31802E+00
-3.02187E-01	-1.45512E+00	2.96600E+00	-4.28682E+00
-1.22432E+00	-7.82224E-01	2.96143E+00	-4.25603E+00
-8.60569E-01	7.71646E-01	2.95701E+00	-4.22562E+00
3.36209E-01	1.49228E+00	2.95275E+00	-4.19560E+00
1.13626E+00	5.65925E-01	2.94865E+00	-4.16595E+00
7.76250E-01	-9.95045E-01	2.94469E+00	-4.13666E+00
-3.50689E-01	-1.47524E+00	2.94087E+00	-4.10772E+00
-1.13068E+00	-3.61596E-01	2.93718E+00	-4.07914E+00
-8.10413E-01	1.11408E+00	2.93362E+00	-4.05088E+00
2.89445E-01	1.36801E+00	2.93019E+00	-4.02295E+00
1.08380E+00	1.89731E-01	2.92687E+00	-3.99534E+00
7.79292E-01	-1.10239E+00	2.92367E+00	-3.96805E+00
-3.23438E-01	-1.15418E+00	2.92058E+00	-3.94107E+00
-1.10227E+00	-3.61734E-03	2.91758E+00	-3.91438E+00
-7.49054E-01	1.06923E+00	2.91467E+00	-3.88798E+00
3.71607E-01	9.75561E-01	2.91185E+00	-3.86186E+00
1.07779E+00	-8.05391E-02	2.90913E+00	-3.83600E+00
6.21586E-01	-9.34243E-01	2.90649E+00	-3.81041E+00
-4.93256E-01	-7.35199E-01	2.90393E+00	-3.78508E+00
-1.04619E+00	2.24685E-01	2.90145E+00	-3.76000E+00
-4.33720E-01	9.08598E-01	2.89905E+00	-3.73516E+00
6.64600E-01	6.34535E-01	2.89673E+00	-3.71055E+00
1.03724E+00	-2.71217E-01	2.89448E+00	-3.68617E+00
2.78655E-01	-8.61966E-01	2.89230E+00	-3.66202E+00
-7.71990E-01	-5.43068E-01	2.89021E+00	-3.63810E+00
-9.66323E-01	3.48186E-01	2.88818E+00	-3.61439E+00
-1.01638E-01	8.99709E-01	2.88622E+00	-3.59090E+00
8.83147E-01	5.44935E-01	2.88431E+00	-3.56763E+00
9.46698E-01	-3.66236E-01	2.88246E+00	-3.54456E+00
5.12652E-02	-9.16057E-01	2.88067E+00	-3.52169E+00
-8.44160E-01	-5.47465E-01	2.87893E+00	-3.49902E+00
-8.31539E-01	3.63078E-01	2.87725E+00	-3.47653E+00
1.80933E-02	8.87049E-01	2.87561E+00	-3.45424E+00
7.95632E-01	5.01182E-01	2.87402E+00	-3.43213E+00
7.35386E-01	-3.74453E-01	2.87248E+00	-3.41019E+00
-2.82879E-02	-8.28332E-01	2.87097E+00	-3.38842E+00
-6.72771E-01	-4.20837E-01	2.86951E+00	-3.36682E+00
-5.70154E-01	3.71069E-01	2.86809E+00	-3.34537E+00
9.94348E-02	6.94559E-01	2.86673E+00	-3.32409E+00
5.96421E-01	2.43802E-01	2.86540E+00	-3.30296E+00
4.17899E-01	-4.40280E-01	2.86411E+00	-3.28199E+00
-1.99271E-01	-5.95370E-01	2.86287E+00	-3.26116E+00
-5.64506E-01	-7.64336E-02	2.86167E+00	-3.24049E+00
-2.81616E-01	5.10902E-01	2.86051E+00	-3.21997E+00
3.32318E-01	5.00505E-01	2.85937E+00	-3.19959E+00
5.92612E-01	-9.96395E-02	2.85828E+00	-3.17936E+00
1.89023E-01	-6.25354E-01	2.85721E+00	-3.15926E+00
-4.66045E-01	-4.85869E-01	2.85617E+00	-3.13930E+00
-6.64064E-01	1.95313E-01	2.85516E+00	-3.11946E+00
-1.59555E-01	7.07890E-01	2.85418E+00	-3.09975E+00
5.47949E-01	5.02323E-01	2.85323E+00	-3.08016E+00
7.23252E-01	-2.33211E-01	2.85230E+00	-3.06069E+00
1.66472E-01	-7.61017E-01	2.85140E+00	-3.04134E+00
-5.69520E-01	-5.45207E-01	2.85053E+00	-3.02210E+00
-7.46717E-01	2.05016E-01	2.84968E+00	-3.00297E+00
-1.96689E-01	7.48161E-01	2.84887E+00	-2.98395E+00
5.21807E-01	5.56273E-01	2.84808E+00	-2.96503E+00
7.06261E-01	-1.62852E-01	2.84733E+00	-2.94623E+00
2.12250E-01	-6.89843E-01	2.84661E+00	-2.92754E+00
-4.38762E-01	-5.24832E-01	2.84590E+00	-2.90895E+00
-6.15574E-01	1.24319E-01	2.84522E+00	-2.89046E+00
-1.98580E-01	5.85661E-01	2.84457E+00	-2.87208E+00
3.50704E-01	4.25178E-01	2.84394E+00	-2.85380E+00
4.92315E-01	-1.31973E-01	2.84332E+00	-2.83562E+00
1.40211E-01	-4.82294E-01	2.84272E+00	-2.81754E+00
-2.99293E-01	-2.96281E-01	2.84212E+00	-2.79955E+00
-3.77572E-01	1.64504E-01	2.84153E+00	-2.78164E+00
-5.72956E-02	3.78264E-01	2.84096E+00	-2.76381E+00
2.83349E-01	1.43583E-01	2.84040E+00	-2.74604E+00
2.72917E-01	-2.32037E-01	2.83987E+00	-2.72834E+00
-5.86929E-02	-3.10920E-01	2.83938E+00	-2.71072E+00
-3.25093E-01	-1.83866E-02	2.83892E+00	-2.69317E+00
-2.14313E-01	2.96347E-01	2.83849E+00	-2.67572E+00
1.59681E-01	2.69797E-01	2.83809E+00	-2.65835E+00
3.72914E-01	-7.17237E-02	2.83770E+00	-2.64108E+00
1.61365E-01	-3.51533E-01	2.83732E+00	-2.62389E+00
-2.67456E-01	-2.58973E-01	2.83695E+00	-2.60678E+00
-4.41344E-01	1.19100E-01	2.83657E+00	-2.58974E+00
-1.42398E-01	3.94073E-01	2.83621E+00	-2.57276E+00
3.31949E-01	2.79588E-01	2.83585E+00	-2.55585E+00
4.73206E-01	-1.18287E-01	2.83551E+00	-2.53899E+00
1.14365E-01	-4.08345E-01	2.83518E+00	-2.52219E+00
-3.76816E-01	-3.00710E-01	2.83486E+00	-2.50545E+00
-4.85496E-01	1.08297E-01	2.83456E+00	-2.48876E+00
-9.95905E-02	4.25209E-01	2.83427E+00	-2.47212E+00
3.76368E-01	3.38207E-01	2.83401E+00	-2.45554E+00
4.57989E-01	-7.52288E-02	2.83376E+00	-2.43902E+00
8.49643E-02	-4.14100E-01	2.83354E+00	-2.42256E+00
-3.42206E-01	-3.43513E-01	2.83332E+00	-2.40616E+00
-4.00909E-01	6.74063E-02	2.83312E+00	-2.38982E+00
-7.03123E-02	4.06392E-01	2.83292E+00	-2.37352E+00
2.89786E-01	3.33736E-01	2.83273E+00	-2.35727E+00
3.34412E-01	-6.66675E-02	2.83256E+00	-2.34107E+00
6.41469E-02	-3.75195E-01	2.83241E+00	-2.32491E+00
-2.23381E-01	-2.80463E-01	2.83226E+00	-2.30881E+00
-2.57709E-01	9.40008E-02	2.83213E+00	-2.29276E+00
-4.46071E-02	3.35748E-01	2.83200E+00	-2.27675E+00
1.79998E-01	1.99049E-01	2.83187E+00	-2.26078E+00
2.01044E-01	-1.37044E-01	2.83175E+00	-2.24485E+00
2.21090E-02	-2.88706E-01	2.83164E+00	-2.22895E+00
-1.60576E-01	-1.03847E-01	2.83153E+00	-2.21308E+00
-1.60819E-01	1.82901E-01	2.83145E+00	-2.19724E+00
1.48611E-02	2.37748E-01	2.83139E+00	-2.18144E+00
1.75424E-01	1.05829E-02	2.83134E+00	-2.16567E+00
1.40491E-01	-2.24707E-01	2.83131E+00	-2.14994E+00
-6.45995E-02	-1.97538E-01	2.83129E+00	-2.13425E+00
-2.20110E-01	5.54768E-02	2.83128E+00	-2.11859E+00
-1.40448E-01	2.47974E-01	2.83127E+00	-2.10297E+00
1.10239E-01	1.72267E-01	2.83128E+00	-2.08737E+00
2.63782E-01	-8.19966E-02	2.83131E+00	-2.07181E+00
1.34522E-01	-2.43700E-01	2.83134E+00	-2.05628E+00
-1.58813E-01	-1.54108E-01	2.83137E+00	-2.04080E+00
-3.01579E-01	8.42463E-02	2.83140E+00	-2.02533E+00
-1.26217E-01	2.33860E-01	2.83143E+00	-2.00988E+00
1.89589E-01	1.61858E-01	2.83147E+00	-1.99445E+00
3.07528E-01	-4.91470E-02	2.83151E+00	-1.97903E+00
1.01315E-01	-1.98348E-01	2.83156E+00	-1.96363E+00
-2.02322E-01	-1.54964E-01	2.83163E+00	-1.94824E+00
-2.76635E-01	3.28113E-02	2.83170E+00	-1.93286E+00
-5.45306E-02	1.88496E-01	2.83179E+00	-1.91750E+00
2.10160E-01	1.66880E-01	2.83189E+00	-1.90216E+00
2.36462E-01	-1.14383E-02	2.83201E+00	-1.88682E+00
2.08372E-02	-1.72761E-01	2.83214E+00	-1.87150E+00
-1.83502E-01	-1.54054E-01	2.83229E+00	-1.85620E+00
-1.62856E-01	2.81526E-02	2.83244E+00	-1.84092E+00
3.40921E-02	1.82311E-01	2.83260E+00	-1.82566E+00
1.79517E-01	1.38215E-01	2.83277E+00	-1.81041E+00
1.28753E-01	-6.22206E-02	2.83294E+00	-1.79517E+00
-4.07892E-02	-1.98942E-01	2.83311E+00	-1.77994E+00
-1.41104E-01	-1.15159E-01	2.83328E+00	-1.76471E+00
-7.98377E-02	9.86787E-02	2.83346E+00	-1.74948E+00
6.33253E-02	1.98615E-01	2.83364E+00	-1.73424E+00
1.40198E-01	6.47165E-02	2.83384E+00	-1.71900E+00
8.29021E-02	-1.55822E-01	2.83404E+00	-1.70376E+00
-4.63263E-02	-2.13201E-01	2.83427E+00	-1.68850E+00
-1.25555E-01	-4.16442E-02	2.83451E+00	-1.67325E+00
-8.32360E-02	1.64738E-01	2.83477E+00	-1.65799E+00
4.20031E-02	1.75069E-01	2.83505E+00	-1.64273E+00
1.33124E-01	-1.71415E-02	2.83535E+00	-1.62747E+00
9.67399E-02	-1.94452E-01	2.83567E+00	-1.61223E+00
-4.34047E-02	-1.66672E-01	2.83601E+00	-1.59699E+00
-1.54158E-01	2.29685E-02	2.83635E+00	-1.58176E+00
-1.17364E-01	1.62771E-01	2.83669E+00	-1.56654E+00
