jMRUI Data Textfile
 
Filename: Tau.txt
 
PointsInDataset: 2048
DatasetsInFile: 1
SamplingInterval: 5.00000E-01
ZeroOrderPhase: 0E0
BeginTime: 0E0
TransmitterFrequency: 1.27740E+08
MagneticField: 0E0
TypeOfNucleus: 0E0
NameOfPatient: 
DateOfExperiment: 
Spectrometer: Vespa-Simulation
AdditionalInfo: see 'readme' file for Vespa-Simulation output synopsis
 
  
Signal and FFT 
sig(real)	sig(imag)	fft(real)	fft(imag)
Signal 1 out of 1 in file
3.87241E+00	-4.82297E-07	2.11554E+00	-6.91113E+00
3.25817E+00	-1.99082E+00	2.11357E+00	-6.87036E+00
1.71547E+00	-3.34540E+00	2.11163E+00	-6.83005E+00
-2.75750E-01	-3.68639E+00	2.10973E+00	-6.79016E+00
-2.11833E+00	-2.94755E+00	2.10786E+00	-6.75071E+00
-3.27935E+00	-1.38325E+00	2.10603E+00	-6.71169E+00
-3.44624E+00	5.18474E-01	2.10422E+00	-6.67309E+00
-2.61113E+00	2.18958E+00	2.10245E+00	-6.63489E+00
-1.06087E+00	3.15371E+00	2.10070E+00	-6.59711E+00
7.20632E-01	3.16330E+00	2.09897E+00	-6.55971E+00
2.20461E+00	2.26234E+00	2.09727E+00	-6.52271E+00
2.97585E+00	7.59334E-01	2.09560E+00	-6.48608E+00
2.84960E+00	-8.77280E-01	2.09396E+00	-6.44983E+00
1.91374E+00	-2.16594E+00	2.09234E+00	-6.41396E+00
4.87537E-01	-2.75471E+00	2.09075E+00	-6.37845E+00
-9.85993E-01	-2.51734E+00	2.08919E+00	-6.34330E+00
-2.07826E+00	-1.57660E+00	2.08764E+00	-6.30850E+00
-2.50024E+00	-2.52135E-01	2.08612E+00	-6.27405E+00
-2.17825E+00	1.04678E+00	2.08463E+00	-6.23994E+00
-1.26052E+00	1.94795E+00	2.08315E+00	-6.20617E+00
-5.74667E-02	2.22289E+00	2.08170E+00	-6.17273E+00
1.06181E+00	1.84319E+00	2.08028E+00	-6.13962E+00
1.78270E+00	9.73126E-01	2.07888E+00	-6.10683E+00
1.93305E+00	-9.44439E-02	2.07750E+00	-6.07436E+00
1.52174E+00	-1.03507E+00	2.07614E+00	-6.04220E+00
7.20044E-01	-1.59095E+00	2.07480E+00	-6.01036E+00
-2.03629E-01	-1.64065E+00	2.07348E+00	-5.97882E+00
-9.71988E-01	-1.22191E+00	2.07218E+00	-5.94757E+00
-1.38146E+00	-5.04802E-01	2.07090E+00	-5.91662E+00
-1.35469E+00	2.71989E-01	2.06963E+00	-5.88596E+00
-9.49952E-01	8.79010E-01	2.06839E+00	-5.85559E+00
-3.28953E-01	1.16286E+00	2.06718E+00	-5.82550E+00
3.03007E-01	1.08298E+00	2.06597E+00	-5.79569E+00
7.63207E-01	7.10291E-01	2.06479E+00	-5.76616E+00
9.43266E-01	1.92199E-01	2.06361E+00	-5.73690E+00
8.31942E-01	-3.01302E-01	2.06245E+00	-5.70790E+00
5.05564E-01	-6.31823E-01	2.06131E+00	-5.67917E+00
9.27241E-02	-7.29966E-01	2.06018E+00	-5.65069E+00
-2.72370E-01	-6.06437E-01	2.05908E+00	-5.62247E+00
-4.91953E-01	-3.36686E-01	2.05798E+00	-5.59450E+00
-5.29187E-01	-2.73774E-02	2.05691E+00	-5.56678E+00
-4.09763E-01	2.22158E-01	2.05585E+00	-5.53931E+00
-2.03076E-01	3.50192E-01	2.05479E+00	-5.51208E+00
7.95306E-03	3.45931E-01	2.05375E+00	-5.48509E+00
1.56716E-01	2.43711E-01	2.05273E+00	-5.45833E+00
2.12422E-01	1.02830E-01	2.05172E+00	-5.43179E+00
1.83902E-01	-1.80158E-02	2.05072E+00	-5.40548E+00
1.08649E-01	-8.19355E-02	2.04975E+00	-5.37941E+00
3.30194E-02	-8.36028E-02	2.04879E+00	-5.35356E+00
-7.92091E-03	-4.54984E-02	2.04783E+00	-5.32793E+00
-3.26513E-03	-3.71186E-03	2.04689E+00	-5.30252E+00
3.23302E-02	1.00586E-02	2.04595E+00	-5.27732E+00
6.81275E-02	-1.71723E-02	2.04503E+00	-5.25233E+00
7.30043E-02	-7.44814E-02	2.04413E+00	-5.22754E+00
3.05934E-02	-1.32521E-01	2.04323E+00	-5.20296E+00
-5.22949E-02	-1.56962E-01	2.04236E+00	-5.17858E+00
-1.47266E-01	-1.24216E-01	2.04149E+00	-5.15441E+00
-2.15183E-01	-3.30093E-02	2.04063E+00	-5.13044E+00
-2.21981E-01	9.28768E-02	2.03977E+00	-5.10666E+00
-1.53223E-01	2.11909E-01	2.03893E+00	-5.08308E+00
-2.17227E-02	2.79539E-01	2.03809E+00	-5.05968E+00
1.34909E-01	2.64968E-01	2.03727E+00	-5.03646E+00
2.66128E-01	1.63668E-01	2.03646E+00	-5.01342E+00
3.25727E-01	9.37903E-04	2.03567E+00	-4.99057E+00
2.88331E-01	-1.75042E-01	2.03488E+00	-4.96791E+00
1.59331E-01	-3.08516E-01	2.03411E+00	-4.94543E+00
-2.55011E-02	-3.54659E-01	2.03334E+00	-4.92313E+00
-2.10655E-01	-2.94901E-01	2.03257E+00	-4.90100E+00
-3.38489E-01	-1.43921E-01	2.03181E+00	-4.87904E+00
-3.67877E-01	5.42598E-02	2.03107E+00	-4.85723E+00
-2.87738E-01	2.39877E-01	2.03034E+00	-4.83560E+00
-1.20953E-01	3.56176E-01	2.02962E+00	-4.81414E+00
8.25781E-02	3.67387E-01	2.02891E+00	-4.79284E+00
2.61556E-01	2.69958E-01	2.02821E+00	-4.77172E+00
3.62332E-01	9.35656E-02	2.02751E+00	-4.75075E+00
3.55487E-01	-1.08325E-01	2.02680E+00	-4.72994E+00
2.44577E-01	-2.75202E-01	2.02611E+00	-4.70927E+00
6.44582E-02	-3.58184E-01	2.02543E+00	-4.68875E+00
-1.29960E-01	-3.34627E-01	2.02477E+00	-4.66838E+00
-2.80906E-01	-2.14372E-01	2.02412E+00	-4.64816E+00
-3.45297E-01	-3.58294E-02	2.02349E+00	-4.62811E+00
-3.07242E-01	1.46563E-01	2.02286E+00	-4.60821E+00
-1.81819E-01	2.79216E-01	2.02222E+00	-4.58845E+00
-9.35404E-03	3.25435E-01	2.02159E+00	-4.56884E+00
1.57735E-01	2.75643E-01	2.02096E+00	-4.54936E+00
2.71052E-01	1.48973E-01	2.02035E+00	-4.53002E+00
3.00431E-01	-1.38148E-02	2.01975E+00	-4.51081E+00
2.41914E-01	-1.63527E-01	2.01916E+00	-4.49175E+00
1.17467E-01	-2.57568E-01	2.01858E+00	-4.47283E+00
-3.29750E-02	-2.72075E-01	2.01800E+00	-4.45405E+00
-1.64356E-01	-2.07836E-01	2.01741E+00	-4.43540E+00
-2.40042E-01	-8.85006E-02	2.01683E+00	-4.41687E+00
-2.42018E-01	4.78684E-02	2.01626E+00	-4.39847E+00
-1.74864E-01	1.60877E-01	2.01571E+00	-4.38019E+00
-6.28553E-02	2.19771E-01	2.01516E+00	-4.36204E+00
5.85726E-02	2.11698E-01	2.01461E+00	-4.34402E+00
1.53929E-01	1.44084E-01	2.01408E+00	-4.32613E+00
1.97991E-01	4.09351E-02	2.01355E+00	-4.30835E+00
1.82299E-01	-6.54282E-02	2.01304E+00	-4.29070E+00
1.16235E-01	-1.44411E-01	2.01253E+00	-4.27319E+00
2.28439E-02	-1.75799E-01	2.01202E+00	-4.25579E+00
-6.89606E-02	-1.54723E-01	2.01150E+00	-4.23852E+00
-1.33217E-01	-9.17370E-02	2.01098E+00	-4.22135E+00
-1.54115E-01	-8.41677E-03	2.01047E+00	-4.20428E+00
-1.29601E-01	6.97839E-02	2.00997E+00	-4.18733E+00
-7.07340E-02	1.21169E-01	2.00948E+00	-4.17049E+00
2.68696E-03	1.33654E-01	2.00899E+00	-4.15376E+00
6.85591E-02	1.07293E-01	2.00851E+00	-4.13714E+00
1.08978E-01	5.31415E-02	2.00804E+00	-4.12063E+00
1.14918E-01	-1.09226E-02	2.00758E+00	-4.10423E+00
8.79350E-02	-6.59178E-02	2.00713E+00	-4.08794E+00
3.87172E-02	-9.72050E-02	2.00668E+00	-4.07177E+00
-1.68022E-02	-9.82053E-02	2.00622E+00	-4.05570E+00
-6.24243E-02	-7.14733E-02	2.00576E+00	-4.03973E+00
-8.62611E-02	-2.70984E-02	2.00531E+00	-4.02385E+00
-8.36355E-02	2.08320E-02	2.00487E+00	-4.00807E+00
-5.77120E-02	5.85472E-02	2.00444E+00	-3.99239E+00
-1.78672E-02	7.64052E-02	2.00402E+00	-3.97682E+00
2.34906E-02	7.11768E-02	2.00359E+00	-3.96135E+00
5.46460E-02	4.63580E-02	2.00317E+00	-3.94598E+00
6.77578E-02	1.05913E-02	2.00274E+00	-3.93071E+00
6.06833E-02	-2.51884E-02	2.00231E+00	-3.91551E+00
3.70695E-02	-5.09634E-02	2.00190E+00	-3.90041E+00
4.85845E-03	-6.03230E-02	2.00150E+00	-3.88540E+00
-2.62553E-02	-5.19311E-02	2.00110E+00	-3.87049E+00
-4.76407E-02	-2.94848E-02	2.00072E+00	-3.85568E+00
-5.40147E-02	-3.08158E-04	2.00033E+00	-3.84096E+00
-4.46524E-02	2.69356E-02	1.99994E+00	-3.82633E+00
-2.32575E-02	4.47270E-02	1.99955E+00	-3.81179E+00
3.36111E-03	4.86847E-02	1.99916E+00	-3.79734E+00
2.73850E-02	3.85690E-02	1.99877E+00	-3.78297E+00
4.21964E-02	1.80834E-02	1.99839E+00	-3.76868E+00
4.41493E-02	-6.38455E-03	1.99802E+00	-3.75448E+00
3.34098E-02	-2.76931E-02	1.99765E+00	-3.74036E+00
1.37012E-02	-3.99759E-02	1.99729E+00	-3.72632E+00
-8.92101E-03	-4.02138E-02	1.99693E+00	-3.71237E+00
-2.78819E-02	-2.89388E-02	1.99657E+00	-3.69851E+00
-3.79584E-02	-9.91745E-03	1.99621E+00	-3.68472E+00
-3.66937E-02	1.10673E-02	1.99585E+00	-3.67102E+00
-2.49632E-02	2.79299E-02	1.99550E+00	-3.65739E+00
-6.58871E-03	3.60292E-02	1.99515E+00	-3.64383E+00
1.28740E-02	3.34277E-02	1.99482E+00	-3.63035E+00
2.77933E-02	2.13346E-02	1.99449E+00	-3.61696E+00
3.40781E-02	3.63234E-03	1.99416E+00	-3.60365E+00
3.02926E-02	-1.43446E-02	1.99382E+00	-3.59041E+00
1.79612E-02	-2.74115E-02	1.99349E+00	-3.57725E+00
1.01069E-03	-3.20154E-02	1.99316E+00	-3.56416E+00
-1.54652E-02	-2.72036E-02	1.99284E+00	-3.55113E+00
-2.67330E-02	-1.47912E-02	1.99252E+00	-3.53819E+00
-2.97808E-02	1.28511E-03	1.99221E+00	-3.52531E+00
-2.41204E-02	1.62066E-02	1.99190E+00	-3.51251E+00
-1.18179E-02	2.57181E-02	1.99159E+00	-3.49979E+00
3.23537E-03	2.73486E-02	1.99129E+00	-3.48713E+00
1.65427E-02	2.10423E-02	1.99099E+00	-3.47454E+00
2.43546E-02	9.05763E-03	1.99069E+00	-3.46203E+00
2.47282E-02	-4.81825E-03	1.99039E+00	-3.44958E+00
1.79983E-02	-1.64648E-02	1.99010E+00	-3.43720E+00
6.54902E-03	-2.26577E-02	1.98981E+00	-3.42488E+00
-6.01028E-03	-2.19625E-02	1.98952E+00	-3.41263E+00
-1.59813E-02	-1.50453E-02	1.98924E+00	-3.40045E+00
-2.06739E-02	-4.33618E-03	1.98897E+00	-3.38834E+00
-1.91222E-02	6.80187E-03	1.98869E+00	-3.37630E+00
-1.22495E-02	1.51306E-02	1.98840E+00	-3.36433E+00
-2.45459E-03	1.84785E-02	1.98812E+00	-3.35241E+00
7.20747E-03	1.62955E-02	1.98784E+00	-3.34055E+00
1.39760E-02	9.68243E-03	1.98757E+00	-3.32875E+00
1.61689E-02	9.29666E-04	1.98731E+00	-3.31702E+00
1.35811E-02	-7.26247E-03	1.98704E+00	-3.30536E+00
7.40724E-03	-1.26061E-02	1.98678E+00	-3.29375E+00
-2.39039E-04	-1.38574E-02	1.98651E+00	-3.28221E+00
-7.03206E-03	-1.10745E-02	1.98624E+00	-3.27073E+00
-1.11311E-02	-5.46732E-03	1.98598E+00	-3.25930E+00
-1.16615E-02	1.07507E-03	1.98572E+00	-3.24792E+00
-8.86094E-03	6.60242E-03	1.98546E+00	-3.23661E+00
-3.88453E-03	9.67118E-03	1.98521E+00	-3.22535E+00
1.62959E-03	9.69341E-03	1.98496E+00	-3.21416E+00
6.08106E-03	7.00305E-03	1.98471E+00	-3.20302E+00
8.35056E-03	2.64968E-03	1.98447E+00	-3.19194E+00
8.05000E-03	-1.98052E-03	1.98422E+00	-3.18091E+00
5.53705E-03	-5.58520E-03	1.98398E+00	-3.16993E+00
1.72563E-03	-7.28533E-03	1.98374E+00	-3.15901E+00
-2.22372E-03	-6.80452E-03	1.98351E+00	-3.14815E+00
-5.23476E-03	-4.46716E-03	1.98328E+00	-3.13734E+00
-6.57478E-03	-1.04723E-03	1.98305E+00	-3.12659E+00
-5.99931E-03	2.46982E-03	1.98282E+00	-3.11590E+00
-3.76389E-03	5.14317E-03	1.98259E+00	-3.10526E+00
-5.25268E-04	6.29315E-03	1.98237E+00	-3.09467E+00
2.83242E-03	5.64266E-03	1.98214E+00	-3.08413E+00
5.40632E-03	3.36799E-03	1.98192E+00	-3.07364E+00
6.48279E-03	5.60609E-05	1.98169E+00	-3.06321E+00
5.70765E-03	-3.42013E-03	1.98147E+00	-3.05283E+00
